Time,Sample Count, IR Count, Red Count, Raw ECG, Raw ECG (mV),Filtered ECG, Filtered ECG (mV)
38:50.6,53883,204,0,-475,-0.145433125,-978,-0.29943915
38:50.6,53884,200,9,-1648,-0.5045764,-960,-0.293928
38:50.6,53885,205,0,-924,-0.2829057,-947,-0.289947725
38:50.6,53886,202,9,63,0.019289025,-952,-0.2914786
38:50.6,53887,204,0,-578,-0.17696915,-945,-0.289335375
38:50.6,53888,201,9,-1492,-0.4568131,-917,-0.280762475
38:50.7,53889,205,0,-878,-0.26882165,-894,-0.27372045
38:50.7,53890,200,11,69,0.021126075,-885,-0.270964875
38:50.7,53891,206,0,-443,-0.135635525,-866,-0.26514755
38:50.7,53892,201,9,-1521,-0.465692175,-835,-0.255656125
38:50.7,53893,206,0,-866,-0.26514755,-826,-0.25290055
38:50.7,53894,202,9,200,0.061235,-847,-0.259330225
38:50.7,53895,207,0,-463,-0.141759025,-862,-0.26392285
38:50.7,53896,201,9,-1755,-0.537337125,-855,-0.261779625
38:50.7,53897,206,0,-980,-0.3000515,-856,-0.2620858
38:50.7,53898,200,8,174,0.05327445,-875,-0.267903125
38:50.7,53899,208,0,-545,-0.166865375,-878,-0.26882165
38:50.7,53900,202,8,-1622,-0.49661585,-858,-0.26269815
38:50.7,53901,207,0,-1066,-0.32638255,-851,-0.260554925
38:50.7,53902,201,8,190,0.05817325,-868,-0.2657599
38:50.7,53903,209,0,-474,-0.14512695,-872,-0.2669846
38:50.8,53904,202,7,-1773,-0.542848275,-847,-0.259330225
38:50.8,53905,210,0,-967,-0.296071225,-821,-0.251369675
38:50.8,53906,201,7,123,0.037659525,-811,-0.248307925
38:50.8,53907,210,0,-443,-0.135635525,-793,-0.242796775
38:50.8,53908,202,7,-1435,-0.439361125,-757,-0.231774475
38:50.8,53909,211,0,-684,-0.2094237,-733,-0.224426275
38:50.8,53910,203,6,460,0.1408405,-737,-0.225650975
38:50.8,53911,210,0,-134,-0.04102745,-736,-0.2253448
38:50.8,53912,202,6,-1492,-0.4568131,-712,-0.2179966
38:50.8,53913,212,0,-694,-0.21248545,-699,-0.214016325
38:50.8,53914,201,5,647,0.198095225,-709,-0.217078075
38:50.8,53915,211,0,-142,-0.04347685,-711,-0.217690425
38:50.8,53916,202,5,-1185,-0.362817375,-697,-0.213403975
38:50.8,53917,211,0,-479,-0.146657825,-698,-0.21371015
38:50.8,53918,203,5,611,0.187072925,-724,-0.2216707
38:50.8,53919,213,0,254,0.07776845,-741,-0.226875675
38:50.8,53920,202,4,-847,-0.259330225,-734,-0.22473245
38:50.9,53921,213,0,-195,-0.059704125,-735,-0.225038625
38:50.9,53922,201,5,504,0.1543122,-756,-0.2314683
38:50.9,53923,215,0,-198,-0.06062265,-765,-0.234223875
38:50.9,53924,202,4,-1348,-0.4127239,-748,-0.2290189
38:50.9,53925,214,0,-694,-0.21248545,-736,-0.2253448
38:50.9,53926,202,5,317,0.097057475,-744,-0.2277942
38:50.9,53927,214,0,-452,-0.1383911,-738,-0.22595715
38:50.9,53928,201,3,-1637,-0.501208475,-703,-0.215241025
38:50.9,53929,215,0,-1291,-0.395271925,-670,-0.20513725
38:50.9,53930,201,2,-53,-0.016227275,-654,-0.20023845
38:50.9,53931,215,0,-838,-0.25657465,-622,-0.19044085
38:50.9,53932,202,3,-2149,-0.657970075,-564,-0.1726827
38:50.9,53933,215,0,-1685,-0.515904875,-515,-0.157680125
38:50.9,53934,200,5,-407,-0.124613225,-493,-0.150944275
38:50.9,53935,216,0,-972,-0.2976021,-465,-0.142371375
38:50.9,53936,202,3,-1988,-0.6086759,-412,-0.1261441
38:50.9,53937,215,0,-1530,-0.46844775,-362,-0.11083535
38:50.9,53938,201,2,-223,-0.068277025,-332,-0.1016501
38:50.9,53939,214,0,-522,-0.15982335,-298,-0.09124015
38:50.9,53940,200,2,-1851,-0.566729925,-251,-0.076849925
38:50.9,53941,215,0,-1255,-0.384249625,-223,-0.068277025
38:50.9,53942,201,2,-41,-0.012553175,-234,-0.07164495
38:50.9,53943,216,0,-962,-0.29454035,-252,-0.0771561
38:50.9,53944,201,2,-2673,-0.818405775,-259,-0.079299325
38:50.9,53945,216,0,-2848,-0.8719864,-286,-0.08756605
38:50.9,53946,202,0,-1983,-0.607145025,-347,-0.106242725
38:51.0,53947,217,0,-2399,-0.734513825,-412,-0.1261441
38:51.0,53948,202,1,-3037,-0.929853475,-468,-0.1432899
38:51.0,53949,217,0,-2012,-0.6160241,-548,-0.1677839
38:51.0,53950,202,0,-554,-0.16962095,-714,-0.21860895
38:51.0,53951,215,0,-1292,-0.3955781,-767,-0.234836225
38:51.0,53952,199,0,-2571,-0.787175925,-849,-0.259942575
38:51.0,53953,218,0,-1958,-0.59949065,-931,-0.285048925
38:51.0,53954,201,0,-699,-0.214016325,-1026,-0.31413555
38:51.0,53955,217,0,-1464,-0.4482402,-1096,-0.3355678
38:51.0,53956,203,0,-2677,-0.819630475,-1119,-0.342609825
38:51.0,53957,217,0,-1953,-0.597959775,-1129,-0.345671575
38:51.0,53958,200,0,-724,-0.2216707,-1150,-0.35210125
38:51.0,53959,217,0,-1202,-0.36802235,-1157,-0.354244475
38:51.0,53960,200,0,-2383,-0.729615025,-1138,-0.34842715
38:51.0,53961,218,0,-1879,-0.575302825,-1138,-0.34842715
38:51.0,53962,200,0,-552,-0.1690086,-1187,-0.363429725
38:51.0,53963,218,0,-1087,-0.332812225,-1261,-0.386086675
38:51.0,53964,201,0,-2345,-0.717980375,-1639,-0.501820825
38:51.0,53965,220,0,-1880,-0.575609,-2022,-0.61908585
38:51.0,53966,201,0,-576,-0.1763568,-2174,-0.66562445
38:51.0,53967,218,0,-909,-0.278313075,-2003,-0.613268525
38:51.0,53968,201,0,-2385,-0.730227375,-1864,-0.5707102
38:51.0,53969,219,0,-1937,-0.593060975,-1892,-0.5792831
38:51.0,53970,202,0,-615,-0.188297625,-1870,-0.57254725
38:51.0,53971,219,0,-1037,-0.317503475,-1924,-0.5890807
38:51.0,53972,201,0,-2104,-0.6441922,-1926,-0.58969305
38:51.0,53973,219,0,-1710,-0.52355925,-1871,-0.572853425
38:51.0,53974,201,0,-376,-0.1151218,-1876,-0.5743843
38:51.0,53975,219,0,-951,-0.291172425,-1837,-0.562443475
38:51.0,53976,202,0,-2160,-0.661338,-1789,-0.547747075
38:51.0,53977,221,0,-1487,-0.455282225,-1728,-0.5290704
38:51.0,53978,199,0,-326,-0.09981305,-1693,-0.518354275
38:51.0,53979,220,0,-720,-0.220446,-1651,-0.505494925
38:51.0,53980,202,0,-2029,-0.621229075,-1588,-0.4862059
38:51.0,53981,220,0,-1411,-0.432012925,-1546,-0.47334655
38:51.0,53982,201,0,-81,-0.024800175,-1551,-0.474877425
38:51.1,53983,220,0,-648,-0.1984014,-1563,-0.478551525
38:51.1,53984,201,0,-2050,-0.62765875,-1550,-0.47457125
38:51.1,53985,220,0,-1580,-0.4837565,-1533,-0.469366275
38:51.1,53986,201,0,-311,-0.095220425,-1531,-0.468753925
38:51.1,53987,220,0,-654,-0.20023845,-1514,-0.46354895
38:51.1,53988,201,0,-1999,-0.612043825,-1468,-0.4494649
38:51.1,53989,221,0,-1382,-0.42313385,-1431,-0.438136425
38:51.1,53990,201,0,-167,-0.051131225,-1431,-0.438136425
38:51.1,53991,223,0,-738,-0.22595715,-1436,-0.4396673
38:51.1,53992,202,0,-1741,-0.533050675,-1421,-0.435074675
38:51.1,53993,223,0,-1281,-0.392210175,-1405,-0.430175875
38:51.1,53994,201,0,-220,-0.0673585,-1403,-0.429563525
38:51.1,53995,221,0,-604,-0.1849297,-1388,-0.4249709
38:51.1,53996,200,0,-2104,-0.6441922,-1341,-0.410580675
38:51.1,53997,221,0,-1715,-0.525090125,-1297,-0.397108975
38:51.1,53998,200,0,-381,-0.116652675,-1276,-0.3906793
38:51.1,53999,223,0,-891,-0.272801925,-1254,-0.38394345
38:51.1,54000,200,0,-2250,-0.68889375,-1210,-0.37047175
38:51.1,54001,222,0,-1741,-0.533050675,-1176,-0.3600618
38:51.1,54002,200,0,-438,-0.13410465,-1169,-0.357918575
38:51.1,54003,222,0,-997,-0.305256475,-1158,-0.35455065
38:51.1,54004,201,0,-2311,-0.707570425,-1125,-0.344446875
38:51.1,54005,222,0,-1829,-0.559994075,-1101,-0.337098675
38:51.1,54006,201,0,-580,-0.1775815,-1107,-0.338935725
38:51.1,54007,222,0,-1063,-0.325464025,-1110,-0.33985425
38:51.1,54008,200,0,-2414,-0.73910645,-1091,-0.334036925
38:51.2,54009,222,0,-2031,-0.621841425,-1073,-0.328525775
38:51.2,54010,199,0,-824,-0.2522882,-1079,-0.330362825
38:51.2,54011,223,0,-1174,-0.35944945,-1083,-0.331587525
38:51.2,54012,199,0,-2332,-0.7140001,-1062,-0.32515785
38:51.2,54013,222,0,-2122,-0.64970335,-1048,-0.3208714
38:51.2,54014,199,0,-837,-0.256268475,-1064,-0.3257702
38:51.2,54015,222,0,-1072,-0.3282196,-1080,-0.330669
38:51.2,54016,199,0,-2487,-0.761457225,-1075,-0.329138125
38:51.2,54017,223,0,-2202,-0.67419735,-1081,-0.330975175
38:51.2,54018,199,0,-594,-0.18186795,-1117,-0.341997475
38:51.2,54019,222,0,-982,-0.30066385,-1153,-0.353019775
38:51.2,54020,199,0,-2394,-0.73298295,-1172,-0.3588371
38:51.2,54021,224,0,-1809,-0.553870575,-1202,-0.36802235
38:51.2,54022,200,0,-586,-0.17941855,-1257,-0.384861975
38:51.2,54023,224,0,-1015,-0.310767625,-1305,-0.399558375
38:51.2,54024,199,0,-2170,-0.66439975,-1322,-0.40476335
38:51.2,54025,224,0,-1836,-0.5621373,-1341,-0.410580675
38:51.2,54026,199,0,-643,-0.196870525,-1386,-0.42435855
38:51.3,54027,224,0,-1013,-0.310155275,-1430,-0.43783025
38:51.3,54028,200,0,-2310,-0.70726425,-1447,-0.443035225
38:51.3,54029,224,0,-2052,-0.6282711,-1462,-0.44762785
38:51.3,54030,198,0,-691,-0.211566925,-1500,-0.4592625
38:51.3,54031,224,0,-955,-0.292397125,-1532,-0.4690601
38:51.3,54032,200,0,-2338,-0.71583715,-1535,-0.469978625
38:51.3,54033,225,0,-2023,-0.619392025,-1541,-0.471815675
38:51.3,54034,198,0,-637,-0.195033475,-1576,-0.4825318
38:51.3,54035,223,0,-978,-0.29943915,-1605,-0.491410875
38:51.3,54036,198,0,-2311,-0.707570425,-1602,-0.49049235
38:51.3,54037,223,0,-1959,-0.599796825,-1593,-0.487736775
38:51.3,54038,199,0,-594,-0.18186795,-1600,-0.48988
38:51.3,54039,225,0,-859,-0.263004325,-1597,-0.488961475
38:51.3,54040,198,0,-2199,-0.673278825,-1565,-0.479163875
38:51.3,54041,226,0,-1917,-0.586937475,-1533,-0.469366275
38:51.3,54042,200,0,-656,-0.2008508,-1524,-0.4666107
38:51.3,54043,225,0,-954,-0.29209095,-1515,-0.463855125
38:51.4,54044,197,0,-2248,-0.6882814,-1485,-0.454669875
38:51.4,54045,227,0,-1786,-0.54682855,-1459,-0.446709325
38:51.4,54046,198,0,-447,-0.136860225,-1463,-0.447934025
38:51.4,54047,227,0,-937,-0.286885975,-1469,-0.449771075
38:51.4,54048,199,0,-2410,-0.73788175,-1451,-0.444259925
38:51.4,54049,227,1,-2051,-0.627964925,-1439,-0.440585825
38:51.4,54050,200,0,-618,-0.18921615,-1457,-0.446096975
38:51.4,54051,226,1,-814,-0.24922645,-1476,-0.4519143
38:51.4,54052,201,0,-2156,-0.6601133,-1472,-0.4506896
38:51.4,54053,227,2,-1913,-0.585712775,-1471,-0.450383425
38:51.4,54054,202,0,-600,-0.183705,-1493,-0.457119275
38:51.4,54055,226,3,-749,-0.229325075,-1507,-0.461405725
38:51.4,54056,203,0,-2053,-0.628577275,-1491,-0.456506925
38:51.4,54057,229,2,-1653,-0.506107275,-1470,-0.45007725
38:51.4,54058,201,0,-415,-0.127062625,-1474,-0.45130195
38:51.4,54059,227,3,-691,-0.211566925,-1479,-0.452832825
38:51.4,54060,203,0,-2033,-0.622453775,-1459,-0.446709325
38:51.4,54061,227,4,-1772,-0.5425421,-1438,-0.44027965
38:51.5,54062,202,0,-317,-0.097057475,-1441,-0.441198175
38:51.5,54063,229,2,-610,-0.18676675,-1440,-0.440892
38:51.5,54064,202,0,-2041,-0.624903175,-1417,-0.433849975
38:51.5,54065,227,2,-1880,-0.575609,-1401,-0.428951175
38:51.5,54066,202,0,-525,-0.160741875,-1415,-0.433237625
38:51.5,54067,229,4,-708,-0.2167719,-1431,-0.438136425
38:51.5,54068,203,0,-1927,-0.589999225,-1419,-0.434462325
38:51.5,54069,227,3,-1822,-0.55785085,-1406,-0.43048205
38:51.5,54070,205,0,-457,-0.139921975,-1419,-0.434462325
38:51.5,54071,229,4,-529,-0.161966575,-1430,-0.43783025
38:51.5,54072,204,0,-1801,-0.551421175,-1413,-0.432625275
38:51.5,54073,227,4,-1689,-0.517129575,-1396,-0.4274203
38:51.5,54074,206,0,-401,-0.122776175,-1399,-0.428338825
38:51.5,54075,229,3,-526,-0.16104805,-1396,-0.4274203
38:51.5,54076,204,0,-1767,-0.541011225,-1361,-0.416704175
38:51.5,54077,228,6,-1600,-0.48988,-1324,-0.4053757
38:51.5,54078,205,0,-576,-0.1763568,-1315,-0.402620125
38:51.5,54079,228,5,-671,-0.205443425,-1307,-0.400170725
38:51.5,54080,206,0,-2006,-0.61418705,-1274,-0.39006695
38:51.5,54081,230,4,-1755,-0.537337125,-1241,-0.379963175
38:51.5,54082,206,0,-454,-0.13900345,-1238,-0.37904465
38:51.5,54083,230,6,-446,-0.13655405,-1238,-0.37904465
38:51.5,54084,207,0,-1744,-0.5339692,-1219,-0.373227325
38:51.5,54085,229,5,-1793,-0.548971775,-1205,-0.368940875
38:51.6,54086,206,0,-350,-0.10716125,-1221,-0.373839675
38:51.6,54087,230,6,-673,-0.206055775,-1239,-0.379350825
38:51.6,54088,206,0,-1887,-0.577752225,-1227,-0.375676725
38:51.6,54089,229,6,-1574,-0.48191945,-1210,-0.37047175
38:51.6,54090,206,0,-240,-0.073482,-1217,-0.372614975
38:51.6,54091,231,5,-368,-0.1126724,-1224,-0.3747582
38:51.6,54092,207,0,-1679,-0.514067825,-1203,-0.368328525
38:51.6,54093,229,6,-1663,-0.509169025,-1174,-0.35944945
38:51.6,54094,205,0,-419,-0.128287325,-1169,-0.357918575
38:51.6,54095,230,8,-355,-0.108692125,-1169,-0.357918575
38:51.6,54096,206,0,-1679,-0.514067825,-1151,-0.352407425
38:51.6,54097,230,6,-1691,-0.517741925,-1134,-0.34720245
38:51.6,54098,206,0,-268,-0.0820549,-1143,-0.349958025
38:51.6,54099,231,6,-266,-0.08144255,-1155,-0.353632125
38:51.6,54100,207,0,-1562,-0.47824535,-1144,-0.3502642
38:51.6,54101,230,7,-1493,-0.457119275,-1132,-0.3465901
38:51.6,54102,207,0,-160,-0.048988,-1145,-0.350570375
38:51.7,54103,231,7,-331,-0.101343925,-1162,-0.35577535
38:51.7,54104,206,0,-1663,-0.509169025,-1157,-0.354244475
38:51.7,54105,232,6,-1391,-0.425889425,-1149,-0.351795075
38:51.7,54106,206,0,-146,-0.04470155,-1158,-0.35455065
38:51.7,54107,232,7,-345,-0.105630375,-1161,-0.355469175
38:51.7,54108,206,0,-1718,-0.52600865,-1134,-0.34720245
38:51.7,54109,232,7,-1731,-0.529988925,-1104,-0.3380172
38:51.7,54110,207,0,-249,-0.076237575,-1100,-0.3367925
38:51.7,54111,232,7,-395,-0.120939125,-1101,-0.337098675
38:51.7,54112,207,0,-1737,-0.531825975,-1077,-0.329750475
38:51.7,54113,232,7,-1564,-0.4788577,-1048,-0.3208714
38:51.7,54114,208,0,-217,-0.066439975,-1046,-0.32025905
38:51.7,54115,231,8,-335,-0.102568625,-1048,-0.3208714
38:51.8,54116,209,0,-1744,-0.5339692,-1025,-0.313829375
38:51.8,54117,233,8,-1750,-0.53580625,-1002,-0.30678735
38:51.8,54118,206,0,-243,-0.074400525,-1003,-0.307093525
38:51.8,54119,232,9,-285,-0.087259875,-1005,-0.307705875
38:51.8,54120,207,0,-1601,-0.490186175,-979,-0.299745325
38:51.8,54121,231,7,-1226,-0.37537055,-950,-0.29086625
38:51.8,54122,208,0,122,0.03735335,-943,-0.288723025
38:51.8,54123,232,8,-68,-0.0208199,-943,-0.288723025
38:51.8,54124,208,0,-1237,-0.378738475,-925,-0.283211875
38:51.8,54125,234,9,-1192,-0.3649606,-909,-0.278313075
38:51.8,54126,208,0,-195,-0.059704125,-919,-0.281374825
38:51.8,54127,233,8,-1008,-0.3086244,-933,-0.285661275
38:51.8,54128,207,0,-2959,-0.905971825,-924,-0.2829057
38:51.8,54129,234,9,-3109,-0.951898075,-915,-0.280150125
38:51.8,54130,207,0,-1321,-0.404457175,-934,-0.28596745
38:51.8,54131,233,9,-882,-0.27004635,-958,-0.29331565
38:51.8,54132,208,0,-2064,-0.6319452,-959,-0.293621825
38:51.8,54133,231,10,-1736,-0.5315198,-959,-0.293621825
38:51.8,54134,209,0,-387,-0.118489725,-986,-0.30188855
38:51.8,54135,235,9,-491,-0.150331925,-1009,-0.308930575
38:51.8,54136,208,0,-1855,-0.567954625,-999,-0.305868825
38:51.8,54137,234,9,-1763,-0.539786525,-979,-0.299745325
38:51.9,54138,207,0,-420,-0.1285935,-977,-0.299132975
38:51.9,54139,233,10,-415,-0.127062625,-973,-0.297908275
38:51.9,54140,207,0,-1769,-0.541623575,-938,-0.28719215
38:51.9,54141,235,10,-1907,-0.583875725,-894,-0.27372045
38:51.9,54142,207,0,-493,-0.150944275,-870,-0.26637225
38:51.9,54143,235,10,-452,-0.1383911,-852,-0.2608611
38:51.9,54144,208,0,-1788,-0.5474409,-829,-0.253819075
38:51.9,54145,236,11,-1918,-0.58724365,-839,-0.256880825
38:51.9,54146,209,0,-459,-0.140534325,-910,-0.27861925
38:51.9,54147,236,11,-340,-0.1040995,-1372,-0.4200721
38:51.9,54148,208,0,-1745,-0.534275375,-1475,-0.451608125
38:51.9,54149,236,11,-1955,-0.598572125,-1607,-0.492023225
38:51.9,54150,208,0,-492,-0.1506381,-1688,-0.5168234
38:51.9,54151,236,10,-368,-0.1126724,-1518,-0.46477365
38:51.9,54152,209,0,-1587,-0.485899725,-1333,-0.408131275
38:51.9,54153,236,11,-1713,-0.524477775,-1323,-0.405069525
38:51.9,54154,208,0,-353,-0.108079775,-1405,-0.430175875
38:51.9,54155,235,10,-145,-0.044395375,-1436,-0.4396673
38:51.9,54156,208,0,-1669,-0.511006075,-1237,-0.378738475
38:51.9,54157,237,9,-1597,-0.488961475,-1263,-0.386699025
38:52.0,54158,207,0,-133,-0.040721275,-1341,-0.410580675
38:52.0,54159,238,11,-80,-0.024494,-1299,-0.397721325
38:52.0,54160,206,0,-1458,-0.44640315,-1229,-0.376289075
38:52.0,54161,238,13,-1500,-0.4592625,-1161,-0.355469175
38:52.0,54162,205,0,-235,-0.071951125,-1128,-0.3453654
38:52.0,54163,239,11,-63,-0.019289025,-1113,-0.340772775
38:52.0,54164,206,0,-1362,-0.41701035,-1092,-0.3343431
38:52.0,54165,238,12,-1575,-0.482225625,-1087,-0.332812225
38:52.0,54166,207,0,-147,-0.045007725,-1123,-0.343834525
38:52.0,54167,239,14,50,0.01530875,-1166,-0.35700005
38:52.0,54168,205,0,-1362,-0.41701035,-1170,-0.35822475
38:52.0,54169,240,12,-1321,-0.404457175,-1147,-0.351182725
38:52.0,54170,205,0,32,0.0097976,-1134,-0.34720245
38:52.0,54171,239,12,193,0.059091775,-1122,-0.34352835
38:52.0,54172,205,0,-1424,-0.4359932,-1089,-0.333424575
38:52.0,54173,239,12,-1536,-0.4702848,-1058,-0.32393315
38:52.0,54174,204,0,-43,-0.013165525,-1057,-0.323626975
38:52.0,54175,240,12,-136,-0.0416398,-1060,-0.3245455
38:52.0,54176,205,0,-1473,-0.450995775,-1030,-0.31536025
38:52.0,54177,241,12,-1641,-0.502433175,-985,-0.301582375
38:52.0,54178,205,0,-145,-0.044395375,-959,-0.293621825
38:52.0,54179,242,12,-204,-0.0624597,-940,-0.2878045
38:52.0,54180,205,0,-1716,-0.5253963,-902,-0.27616985
38:52.0,54181,242,11,-1806,-0.55295205,-863,-0.264229025
38:52.0,54182,204,0,-490,-0.15002575,-854,-0.26147345
38:52.0,54183,242,13,-455,-0.139309625,-854,-0.26147345
38:52.0,54184,204,0,-1865,-0.571016375,-829,-0.253819075
38:52.0,54185,241,13,-1969,-0.602858575,-797,-0.244021475
38:52.0,54186,205,0,-745,-0.228100375,-790,-0.24187825
38:52.0,54187,241,13,-597,-0.182786475,-789,-0.241572075
38:52.1,54188,202,0,-1941,-0.594285675,-762,-0.23330535
38:52.1,54189,241,12,-2245,-0.687362875,-729,-0.223201575
38:52.1,54190,204,0,-837,-0.256268475,-724,-0.2216707
38:52.1,54191,243,14,-585,-0.179112375,-727,-0.222589225
38:52.1,54192,203,0,-2009,-0.615105575,-713,-0.218302775
38:52.1,54193,243,12,-2312,-0.7078766,-698,-0.21371015
38:52.1,54194,202,0,-904,-0.2767822,-714,-0.21860895
38:52.1,54195,243,13,-735,-0.225038625,-739,-0.226263325
38:52.1,54196,202,0,-2121,-0.649397175,-744,-0.2277942
38:52.1,54197,242,14,-2282,-0.69869135,-748,-0.2290189
38:52.1,54198,200,0,-854,-0.26147345,-783,-0.239735025
38:52.1,54199,243,13,-678,-0.20758665,-833,-0.255043775
38:52.1,54200,201,0,-2088,-0.6392934,-862,-0.26392285
38:52.1,54201,243,12,-2258,-0.69134315,-891,-0.272801925
38:52.1,54202,202,0,-884,-0.2706587,-949,-0.290560075
38:52.1,54203,245,14,-595,-0.182174125,-1018,-0.31168615
38:52.1,54204,202,0,-1960,-0.600103,-1059,-0.324239325
38:52.1,54205,244,14,-2264,-0.6931802,-1088,-0.3331184
38:52.1,54206,201,0,-864,-0.2645352,-1142,-0.34965185
38:52.2,54207,245,15,-656,-0.2008508,-1201,-0.367716175
38:52.2,54208,201,0,-1961,-0.600409175,-1232,-0.3772076
38:52.2,54209,244,14,-2211,-0.676952925,-1255,-0.384249625
38:52.2,54210,200,0,-740,-0.2265695,-1304,-0.3992522
38:52.2,54211,245,14,-694,-0.21248545,-1360,-0.416398
38:52.2,54212,201,0,-1961,-0.600409175,-1386,-0.42435855
38:52.2,54213,246,14,-2323,-0.711244525,-1397,-0.427726475
38:52.2,54214,201,0,-946,-0.28964155,-1425,-0.436299375
38:52.2,54215,244,14,-834,-0.25534995,-1455,-0.445484625
38:52.2,54216,200,0,-1937,-0.593060975,-1458,-0.44640315
38:52.2,54217,245,14,-2116,-0.6478663,-1452,-0.4445661
38:52.2,54218,200,0,-775,-0.237285625,-1471,-0.450383425
38:52.2,54219,245,15,-576,-0.1763568,-1497,-0.458343975
38:52.2,54220,200,0,-2036,-0.6233723,-1494,-0.45742545
38:52.2,54221,245,14,-2106,-0.64480455,-1475,-0.451608125
38:52.2,54222,199,0,-723,-0.221364525,-1476,-0.4519143
38:52.2,54223,244,15,-533,-0.163191275,-1484,-0.4543637
38:52.3,54224,198,0,-1659,-0.507944325,-1469,-0.449771075
38:52.3,54225,244,15,-2030,-0.62153525,-1445,-0.442422875
38:52.3,54226,200,0,-532,-0.1628851,-1448,-0.4433414
38:52.3,54227,244,16,-265,-0.081136375,-1458,-0.44640315
38:52.3,54228,200,0,-1523,-0.466304525,-1443,-0.441810525
38:52.3,54229,244,16,-1902,-0.58234485,-1419,-0.434462325
38:52.3,54230,200,0,-647,-0.198095225,-1422,-0.43538085
38:52.3,54231,245,16,-234,-0.07164495,-1439,-0.440585825
38:52.3,54232,198,0,-1639,-0.501820825,-1437,-0.439973475
38:52.3,54233,244,15,-1852,-0.5670361,-1427,-0.436911725
38:52.3,54234,198,0,-524,-0.1604357,-1437,-0.439973475
38:52.3,54235,243,17,-328,-0.1004254,-1454,-0.44517845
38:52.3,54236,198,0,-1549,-0.474265075,-1445,-0.442422875
38:52.3,54237,244,16,-1937,-0.593060975,-1429,-0.437524075
38:52.3,54238,198,0,-489,-0.149719575,-1434,-0.43905495
38:52.3,54239,242,16,-294,-0.09001545,-1443,-0.441810525
38:52.4,54240,198,0,-1638,-0.50151465,-1424,-0.4359932
38:52.4,54241,243,16,-2034,-0.62275995,-1392,-0.4261956
38:52.4,54242,197,0,-576,-0.1763568,-1378,-0.42190915
38:52.4,54243,243,17,-206,-0.06307205,-1369,-0.419153575
38:52.4,54244,197,0,-1561,-0.477939175,-1332,-0.4078251
38:52.4,54245,244,17,-2013,-0.616330275,-1284,-0.3931287
38:52.4,54246,199,0,-600,-0.183705,-1259,-0.385474325
38:52.4,54247,242,16,-362,-0.11083535,-1243,-0.380575525
38:52.4,54248,197,0,-1645,-0.503657875,-1203,-0.368328525
38:52.4,54249,243,17,-2025,-0.620004375,-1156,-0.3539383
38:52.4,54250,198,0,-723,-0.221364525,-1139,-0.348733325
38:52.4,54251,241,17,-305,-0.093383375,-1137,-0.348120975
38:52.4,54252,197,0,-1711,-0.523865425,-1116,-0.3416913
38:52.4,54253,242,17,-2027,-0.620616725,-1087,-0.332812225
38:52.4,54254,197,0,-714,-0.21860895,-1083,-0.331587525
38:52.4,54255,241,17,-374,-0.11450945,-1092,-0.3343431
38:52.4,54256,198,0,-1773,-0.542848275,-1080,-0.330669
38:52.4,54257,242,18,-2232,-0.6833826,-1064,-0.3257702
38:52.4,54258,199,0,-842,-0.25779935,-1074,-0.32883195
38:52.4,54259,241,19,-544,-0.1665592,-1098,-0.33618015
38:52.5,54260,197,0,-1621,-0.496309675,-1096,-0.3355678
38:52.5,54261,241,19,-2252,-0.6895061,-1083,-0.331587525
38:52.5,54262,196,0,-1015,-0.310767625,-1093,-0.334649275
38:52.5,54263,241,17,-283,-0.086647525,-1112,-0.3404666
38:52.5,54264,197,0,-1550,-0.47457125,-1108,-0.3392419
38:52.5,54265,242,20,-2232,-0.6833826,-1094,-0.33495545
38:52.5,54266,196,0,-750,-0.22963125,-1107,-0.338935725
38:52.5,54267,240,19,-566,-0.17329505,-1134,-0.34720245
38:52.5,54268,196,0,-1649,-0.504882575,-1137,-0.348120975
38:52.5,54269,240,18,-2089,-0.639599575,-1128,-0.3453654
38:52.5,54270,195,0,-717,-0.219527475,-1143,-0.349958025
38:52.5,54271,239,20,-424,-0.1298182,-1170,-0.35822475
38:52.5,54272,195,0,-1558,-0.47702065,-1173,-0.359143275
38:52.5,54273,238,21,-2193,-0.671441775,-1166,-0.35700005
38:52.5,54274,195,0,-743,-0.227488025,-1184,-0.3625112
38:52.5,54275,242,22,-413,-0.126450275,-1216,-0.3723088
38:52.5,54276,195,0,-1586,-0.48559355,-1226,-0.37537055
38:52.5,54277,240,20,-2030,-0.62153525,-1223,-0.374452025
38:52.5,54278,194,0,-709,-0.217078075,-1246,-0.38149405
38:52.5,54279,239,22,-190,-0.05817325,-1281,-0.392210175
38:52.5,54280,194,0,-1638,-0.50151465,-1288,-0.3943534
38:52.5,54281,238,21,-2027,-0.620616725,-1276,-0.3906793
38:52.5,54282,194,0,-762,-0.23330535,-1285,-0.393434875
38:52.6,54283,238,22,-277,-0.084810475,-1306,-0.39986455
38:52.6,54284,193,0,-1764,-0.5400927,-1303,-0.398946025
38:52.6,54285,239,22,-2264,-0.6931802,-1286,-0.39374105
38:52.6,54286,193,0,-1047,-0.320565225,-1288,-0.3943534
38:52.6,54287,239,23,-592,-0.1812556,-1299,-0.397721325
38:52.6,54288,194,0,-1841,-0.563668175,-1288,-0.3943534
38:52.6,54289,239,22,-2446,-0.74890405,-1261,-0.386086675
38:52.6,54290,192,0,-1133,-0.346896275,-1254,-0.38394345
38:52.6,54291,235,23,-573,-0.175438275,-1261,-0.386086675
38:52.6,54292,192,0,-1774,-0.54315445,-1251,-0.383024925
38:52.6,54293,237,23,-2306,-0.70603955,-1228,-0.3759829
38:52.6,54294,192,0,-1004,-0.3073997,-1227,-0.375676725
38:52.6,54295,238,24,-387,-0.118489725,-1237,-0.378738475
38:52.6,54296,191,0,-1757,-0.537949475,-1224,-0.3747582
38:52.6,54297,238,23,-2197,-0.672666475,-1199,-0.367103825
38:52.6,54298,191,0,-874,-0.26759695,-1197,-0.366491475
38:52.6,54299,237,26,-396,-0.1212453,-1207,-0.369553225
38:52.6,54300,191,0,-1334,-0.40843745,-1193,-0.365266775
38:52.6,54301,238,25,-1837,-0.562443475,-1170,-0.35822475
38:52.6,54302,191,0,-585,-0.179112375,-1177,-0.360367975
38:52.6,54303,236,25,87,0.026637225,-1205,-0.368940875
38:52.7,54304,192,0,-1307,-0.400170725,-1219,-0.373227325
38:52.7,54305,238,24,-2436,-0.7458423,-1225,-0.375064375
38:52.7,54306,191,0,-1927,-0.589999225,-1258,-0.38516815
38:52.7,54307,237,25,-1735,-0.531213625,-1308,-0.4004769
38:52.7,54308,190,0,-2959,-0.905971825,-1335,-0.408743625
38:52.7,54309,237,26,-3018,-0.92403615,-1346,-0.41211155
38:52.7,54310,192,0,-1196,-0.3661853,-1378,-0.42190915
38:52.7,54311,236,26,-460,-0.1408405,-1422,-0.43538085
38:52.7,54312,191,0,-1682,-0.51498635,-1437,-0.439973475
38:52.7,54313,237,26,-2203,-0.674503525,-1430,-0.43783025
38:52.7,54314,190,0,-849,-0.259942575,-1435,-0.439361125
38:52.7,54315,235,27,-286,-0.08756605,-1445,-0.442422875
38:52.7,54316,190,0,-1331,-0.407518925,-1425,-0.436299375
38:52.7,54317,237,26,-2000,-0.61235,-1380,-0.4225215
38:52.7,54318,191,0,-899,-0.275251325,-1348,-0.4127239
38:52.7,54319,235,29,-311,-0.095220425,-1323,-0.405069525
38:52.7,54320,190,0,-1480,-0.453139,-1273,-0.389760775
38:52.7,54321,235,28,-1971,-0.603470925,-1209,-0.370165575
38:52.7,54322,192,0,-746,-0.22840655,-1180,-0.3612865
38:52.7,54323,235,28,-261,-0.079911675,-1196,-0.3661853
38:52.7,54324,189,0,-1442,-0.44150435,-1227,-0.375676725
38:52.7,54325,235,27,-1995,-0.610819125,-1274,-0.39006695
38:52.7,54326,190,0,-744,-0.2277942,-1712,-0.5241716
38:52.8,54327,236,27,-10,-0.00306175,-1879,-0.575302825
38:52.8,54328,191,0,-1275,-0.390373125,-1767,-0.541011225
38:52.8,54329,235,28,-1962,-0.60071535,-1735,-0.531213625
38:52.8,54330,191,0,-674,-0.20636195,-1751,-0.536112425
38:52.8,54331,234,28,48,0.0146964,-1658,-0.50763815
38:52.8,54332,191,0,-1151,-0.352407425,-1588,-0.4862059
38:52.8,54333,236,27,-1830,-0.56030025,-1385,-0.424052375
38:52.8,54334,191,0,-520,-0.159211,-1342,-0.41088685
38:52.8,54335,236,29,280,0.085729,-1317,-0.403232475
38:52.8,54336,191,0,-928,-0.2841304,-1252,-0.3833311
38:52.8,54337,236,27,-1686,-0.51621105,-1318,-0.40353865
38:52.8,54338,190,0,-486,-0.14880105,-1354,-0.41456095
38:52.8,54339,235,27,247,0.075625225,-1285,-0.393434875
38:52.8,54340,189,0,-789,-0.241572075,-1208,-0.3698594
38:52.8,54341,237,28,-1466,-0.44885255,-1129,-0.345671575
38:52.8,54342,190,0,-221,-0.067664675,-1093,-0.334649275
38:52.8,54343,237,27,348,0.1065489,-1098,-0.33618015
38:52.8,54344,190,0,-766,-0.23453005,-1104,-0.3380172
38:52.8,54345,237,28,-1369,-0.419153575,-1102,-0.33740485
38:52.8,54346,190,0,-247,-0.075625225,-1113,-0.340772775
38:52.9,54347,236,27,510,0.15614925,-1121,-0.343222175
38:52.9,54348,191,0,-740,-0.2265695,-1091,-0.334036925
38:52.9,54349,238,27,-1273,-0.389760775,-1039,-0.318115825
38:52.9,54350,192,0,-5,-0.001530875,-1009,-0.308930575
38:52.9,54351,236,28,572,0.1751321,-1001,-0.306481175
38:52.9,54352,190,0,-694,-0.21248545,-975,-0.298520625
38:52.9,54353,236,27,-1234,-0.37781995,-933,-0.285661275
38:52.9,54354,192,0,139,0.042558325,-911,-0.278925425
38:52.9,54355,235,26,471,0.144208425,-902,-0.27616985
38:52.9,54356,190,0,-692,-0.2118731,-868,-0.2657599
38:52.9,54357,236,27,-1559,-0.477326825,-811,-0.248307925
38:52.9,54358,190,0,-302,-0.09246485,-771,-0.236060925
38:52.9,54359,235,27,448,0.1371664,-752,-0.2302436
38:52.9,54360,189,0,-881,-0.269740175,-718,-0.21983365
38:52.9,54361,236,26,-1798,-0.55050265,-671,-0.205443425
38:52.9,54362,189,0,-576,-0.1763568,-643,-0.196870525
38:52.9,54363,234,27,143,0.043783025,-633,-0.193808775
38:52.9,54364,191,0,-1183,-0.362205025,-605,-0.185235875
38:52.9,54365,237,27,-1810,-0.55417675,-560,-0.171458
38:52.9,54366,189,0,-584,-0.1788062,-533,-0.163191275
38:52.9,54367,235,25,6,0.00183705,-522,-0.15982335
38:52.9,54368,190,0,-1248,-0.3821064,-494,-0.15125045
38:53.0,54369,235,25,-2041,-0.624903175,-455,-0.139309625
38:53.0,54370,189,0,-734,-0.22473245,-436,-0.1334923
38:53.0,54371,236,25,-68,-0.0208199,-431,-0.131961425
38:53.0,54372,189,0,-1270,-0.38884225,-408,-0.1249194
38:53.0,54373,235,25,-1934,-0.59214245,-377,-0.115427975
38:53.0,54374,189,0,-673,-0.206055775,-374,-0.11450945
38:53.0,54375,233,25,64,0.0195952,-393,-0.120326775
38:53.0,54376,190,0,-1053,-0.322402275,-395,-0.120939125
38:53.0,54377,235,24,-1970,-0.60316475,-386,-0.11818355
38:53.0,54378,189,0,-800,-0.24494,-410,-0.12553175
38:53.0,54379,234,24,13,0.003980275,-460,-0.1408405
38:53.0,54380,189,0,-1034,-0.31658495,-498,-0.15247515
38:53.0,54381,233,24,-2020,-0.6184735,-526,-0.16104805
38:53.1,54382,190,0,-768,-0.2351424,-581,-0.177887675
38:53.1,54383,233,25,8,0.0024494,-652,-0.1996261
38:53.1,54384,191,0,-1111,-0.340160425,-699,-0.214016325
38:53.1,54385,233,23,-2062,-0.63133285,-725,-0.221976875
38:53.1,54386,190,0,-837,-0.256268475,-771,-0.236060925
38:53.1,54387,232,24,-238,-0.07286965,-834,-0.25534995
38:53.1,54388,191,0,-1255,-0.384249625,-875,-0.267903125
38:53.1,54389,233,23,-2111,-0.646335425,-892,-0.2731081
38:53.1,54390,191,0,-869,-0.266066075,-922,-0.28229335
38:53.1,54391,232,23,-21,-0.006429675,-960,-0.293928
38:53.1,54392,190,0,-1347,-0.412417725,-970,-0.29698975
38:53.1,54393,233,23,-2086,-0.63868105,-956,-0.2927033
38:53.1,54394,191,0,-888,-0.2718834,-960,-0.293928
38:53.1,54395,232,21,-27,-0.008266725,-983,-0.300970025
38:53.1,54396,192,0,-1120,-0.342916,-982,-0.30066385
38:53.1,54397,230,22,-1984,-0.6074512,-959,-0.293621825
38:53.1,54398,192,0,-945,-0.289335375,-955,-0.292397125
38:53.1,54399,230,22,-277,-0.084810475,-971,-0.297295925
38:53.1,54400,192,0,-1230,-0.37659525,-966,-0.29576505
38:53.2,54401,231,23,-2210,-0.67664675,-943,-0.288723025
38:53.2,54402,192,0,-1110,-0.33985425,-941,-0.288110675
38:53.2,54403,230,22,-146,-0.04470155,-964,-0.2951527
38:53.2,54404,192,0,-1233,-0.377513775,-974,-0.29821445
38:53.2,54405,230,21,-2177,-0.666542975,-970,-0.29698975
38:53.2,54406,194,0,-1115,-0.341385125,-985,-0.301582375
38:53.2,54407,232,20,-226,-0.06919555,-1020,-0.3122985
38:53.2,54408,193,0,-1320,-0.404151,-1036,-0.3171973
38:53.2,54409,230,20,-2180,-0.6674615,-1033,-0.316278775
38:53.2,54410,194,0,-881,-0.269740175,-1046,-0.32025905
38:53.2,54411,230,20,-3,-0.000918525,-1075,-0.329138125
38:53.2,54412,195,0,-1499,-0.458956325,-1082,-0.33128135
38:53.2,54413,229,21,-2207,-0.675728225,-1066,-0.32638255
38:53.2,54414,195,0,-1104,-0.3380172,-1066,-0.32638255
38:53.2,54415,230,21,-162,-0.04960035,-1085,-0.332199875
38:53.2,54416,196,0,-1254,-0.38394345,-1086,-0.33250605
38:53.2,54417,229,20,-2319,-0.710019825,-1069,-0.327301075
38:53.2,54418,194,0,-1158,-0.35455065,-1072,-0.3282196
38:53.2,54419,229,19,-161,-0.049294175,-1096,-0.3355678
38:53.2,54420,196,0,-1231,-0.376901425,-1103,-0.337711025
38:53.3,54421,230,20,-2170,-0.66439975,-1089,-0.333424575
38:53.3,54422,195,0,-1021,-0.312604675,-1098,-0.33618015
38:53.3,54423,229,19,-150,-0.04592625,-1131,-0.346283925
38:53.3,54424,197,0,-1269,-0.388536075,-1150,-0.35210125
38:53.3,54425,227,19,-2197,-0.672666475,-1148,-0.3514889
38:53.3,54426,197,0,-984,-0.3012762,-1159,-0.354856825
38:53.3,54427,227,19,-153,-0.046844775,-1182,-0.36189885
38:53.3,54428,196,0,-1213,-0.371390275,-1183,-0.362205025
38:53.3,54429,227,19,-2172,-0.6650121,-1166,-0.35700005
38:53.3,54430,198,0,-1153,-0.353019775,-1168,-0.3576124
38:53.3,54431,227,19,-145,-0.044395375,-1189,-0.364042075
38:53.3,54432,198,0,-1127,-0.345059225,-1191,-0.364654425
38:53.3,54433,227,19,-2254,-0.69011845,-1170,-0.35822475
38:53.3,54434,199,0,-1221,-0.373839675,-1168,-0.3576124
38:53.3,54435,226,19,-179,-0.054805325,-1189,-0.364042075
38:53.3,54436,200,0,-1177,-0.360367975,-1194,-0.36557295
38:53.3,54437,226,17,-2170,-0.66439975,-1179,-0.360980325
38:53.3,54438,200,0,-1291,-0.395271925,-1184,-0.3625112
38:53.3,54439,228,17,-293,-0.089709275,-1209,-0.370165575
38:53.3,54440,199,0,-1135,-0.347508625,-1209,-0.370165575
38:53.3,54441,226,18,-2218,-0.67909615,-1184,-0.3625112
38:53.3,54442,200,0,-1139,-0.348733325,-1177,-0.360367975
38:53.3,54443,226,18,-62,-0.01898285,-1192,-0.3649606
38:53.3,54444,201,0,-1128,-0.3453654,-1191,-0.364654425
38:53.3,54445,226,18,-2134,-0.65337745,-1168,-0.3576124
38:53.4,54446,199,0,-1096,-0.3355678,-1159,-0.354856825
38:53.4,54447,225,17,-75,-0.022963125,-1172,-0.3588371
38:53.4,54448,202,0,-1124,-0.3441407,-1168,-0.3576124
38:53.4,54449,225,18,-2079,-0.636537825,-1144,-0.3502642
38:53.4,54450,201,0,-948,-0.2902539,-1141,-0.349345675
38:53.4,54451,225,19,83,0.025412525,-1164,-0.3563877
38:53.4,54452,202,0,-1072,-0.3282196,-1172,-0.3588371
38:53.4,54453,226,18,-2166,-0.66317505,-1158,-0.35455065
38:53.4,54454,201,0,-985,-0.301582375,-1160,-0.355163
38:53.4,54455,225,16,-36,-0.0110223,-1187,-0.363429725
38:53.4,54456,202,0,-1004,-0.3073997,-1198,-0.36679765
38:53.4,54457,224,18,-2084,-0.6380687,-1184,-0.3625112
38:53.4,54458,201,0,-1257,-0.384861975,-1185,-0.362817375
38:53.4,54459,225,19,31,0.009491425,-1207,-0.369553225
38:53.4,54460,203,0,-913,-0.279537775,-1212,-0.3710841
38:53.4,54461,223,17,-2015,-0.616942625,-1192,-0.3649606
38:53.4,54462,202,0,-976,-0.2988268,-1184,-0.3625112
38:53.4,54463,225,19,23,0.007042025,-1194,-0.36557295
38:53.4,54464,202,0,-1085,-0.332199875,-1189,-0.364042075
38:53.4,54465,223,18,-2215,-0.678177625,-1160,-0.355163
38:53.5,54466,203,0,-1182,-0.36189885,-1144,-0.3502642
38:53.5,54467,223,17,-136,-0.0416398,-1146,-0.35087655
38:53.5,54468,203,0,-1100,-0.3367925,-1131,-0.346283925
38:53.5,54469,222,18,-2240,-0.685832,-1096,-0.3355678
38:53.5,54470,203,0,-1403,-0.429563525,-1080,-0.330669
38:53.5,54471,222,18,-316,-0.0967513,-1087,-0.332812225
38:53.5,54472,203,0,-999,-0.305868825,-1079,-0.330362825
38:53.5,54473,221,17,-2240,-0.685832,-1050,-0.32148375
38:53.5,54474,203,0,-1325,-0.405681875,-1039,-0.318115825
38:53.5,54475,222,17,-312,-0.0955266,-1057,-0.323626975
38:53.5,54476,204,0,-1192,-0.3649606,-1061,-0.324851675
38:53.5,54477,221,17,-2127,-0.651234225,-1041,-0.318728175
38:53.5,54478,203,0,-1188,-0.3637359,-1036,-0.3171973
38:53.5,54479,223,18,-41,-0.012553175,-1053,-0.322402275
38:53.5,54480,202,0,-736,-0.2253448,-1053,-0.322402275
38:53.5,54481,221,17,-1980,-0.6062265,-1031,-0.315666425
38:53.5,54482,205,0,-840,-0.257187,-1028,-0.3147479
38:53.5,54483,220,17,256,0.0783808,-1052,-0.3220961
38:53.6,54484,204,0,-1003,-0.307093525,-1065,-0.326076375
38:53.6,54485,221,17,-2629,-0.804934075,-1055,-0.323014625
38:53.6,54486,205,0,-2336,-0.7152248,-1060,-0.3245455
38:53.6,54487,220,16,-1402,-0.42925735,-1093,-0.334649275
38:53.6,54488,206,0,-2179,-0.667155325,-1117,-0.341997475
38:53.6,54489,219,15,-2497,-0.764518975,-1118,-0.34230365
38:53.6,54490,204,0,-1169,-0.357918575,-1134,-0.34720245
38:53.6,54491,218,16,4,0.0012247,-1174,-0.35944945
38:53.6,54492,206,0,-881,-0.269740175,-1199,-0.367103825
38:53.6,54493,219,16,-1951,-0.597347425,-1199,-0.367103825
38:53.6,54494,207,0,-971,-0.297295925,-1208,-0.3698594
38:53.6,54495,217,15,159,0.048681825,-1234,-0.37781995
38:53.6,54496,205,0,-788,-0.2412659,-1239,-0.379350825
38:53.6,54497,216,15,-2040,-0.624597,-1210,-0.37047175
38:53.6,54498,206,0,-1250,-0.38271875,-1182,-0.36189885
38:53.6,54499,217,15,21,0.006429675,-1169,-0.357918575
38:53.6,54500,207,0,-864,-0.2645352,-1137,-0.348120975
38:53.7,54501,214,15,-1906,-0.58356955,-1088,-0.3331184
38:53.7,54502,206,0,-1091,-0.334036925,-1068,-0.3269949
38:53.7,54503,216,13,-24,-0.0073482,-1098,-0.33618015
38:53.7,54504,206,0,-988,-0.3025009,-1145,-0.350570375
38:53.7,54505,214,14,-1978,-0.60561415,-1192,-0.3649606
38:53.7,54506,206,0,-1111,-0.340160425,-1492,-0.4568131
38:53.7,54507,216,14,-37,-0.011328475,-1611,-0.493247925
38:53.7,54508,206,0,-1016,-0.3110738,-1486,-0.45497605
38:53.7,54509,214,13,-1908,-0.5841819,-1407,-0.430788225
38:53.7,54510,205,0,-1105,-0.338323375,-1416,-0.4335438
38:53.7,54511,213,12,125,0.038271875,-1426,-0.43660555
38:53.7,54512,205,0,-797,-0.244021475,-1310,-0.40108925
38:53.7,54513,211,14,-1969,-0.602858575,-1002,-0.30678735
38:53.7,54514,206,0,-1229,-0.376289075,-1047,-0.320565225
38:53.7,54515,211,13,25,0.007654375,-1144,-0.3502642
38:53.7,54516,207,0,-784,-0.2400412,-1103,-0.337711025
38:53.7,54517,212,13,-1984,-0.6074512,-1092,-0.3343431
38:53.7,54518,206,0,-1181,-0.361592675,-1056,-0.3233208
38:53.7,54519,210,12,37,0.011328475,-1016,-0.3110738
38:53.7,54520,205,0,-725,-0.221976875,-974,-0.29821445
38:53.7,54521,211,11,-2059,-0.630414325,-925,-0.283211875
38:53.7,54522,206,0,-1064,-0.3257702,-914,-0.27984395
38:53.7,54523,210,11,247,0.075625225,-950,-0.29086625
38:53.8,54524,206,0,-552,-0.1690086,-990,-0.30311325
38:53.8,54525,209,11,-1756,-0.5376433,-1007,-0.308318225
38:53.8,54526,207,0,-791,-0.242184425,-1021,-0.312604675
38:53.8,54527,210,11,335,0.102568625,-1040,-0.318422
38:53.8,54528,209,0,-557,-0.170539475,-1032,-0.3159726
38:53.8,54529,209,11,-1572,-0.4813071,-996,-0.3049503
38:53.8,54530,209,0,-625,-0.191359375,-977,-0.299132975
38:53.8,54531,210,10,315,0.096445125,-992,-0.3037256
38:53.8,54532,208,0,-394,-0.12063295,-1000,-0.306175
38:53.8,54533,209,10,-1752,-0.5364186,-987,-0.302194725
38:53.8,54534,208,0,-940,-0.2878045,-984,-0.3012762
38:53.8,54535,208,9,228,0.0698079,-1001,-0.306481175
38:53.8,54536,210,0,-615,-0.188297625,-1000,-0.306175
38:53.9,54537,210,10,-1885,-0.577139875,-972,-0.2976021
38:53.9,54538,210,0,-1196,-0.3661853,-959,-0.293621825
38:53.9,54539,209,9,3,0.000918525,-974,-0.29821445
38:53.9,54540,209,0,-837,-0.256268475,-976,-0.2988268
38:53.9,54541,209,8,-2056,-0.6294958,-950,-0.29086625
38:53.9,54542,209,0,-1409,-0.431400575,-930,-0.28474275
38:53.9,54543,208,9,-288,-0.0881784,-929,-0.284436575
38:53.9,54544,209,0,-1029,-0.315054075,-914,-0.27984395
38:53.9,54545,208,7,-2312,-0.7078766,-870,-0.26637225
38:53.9,54546,210,0,-1474,-0.45130195,-830,-0.25412525
38:53.9,54547,209,8,-315,-0.096445125,-809,-0.247695575
38:53.9,54548,212,0,-1152,-0.3527136,-776,-0.2375918
38:53.9,54549,210,7,-2394,-0.73298295,-721,-0.220752175
38:53.9,54550,212,0,-1630,-0.49906525,-684,-0.2094237
38:53.9,54551,209,8,-432,-0.1322676,-683,-0.209117525
38:53.9,54552,213,0,-1196,-0.3661853,-681,-0.208505175
38:53.9,54553,210,8,-2439,-0.746760825,-660,-0.2020755
38:53.9,54554,213,0,-1738,-0.53213215,-659,-0.201769325
38:53.9,54555,209,7,-265,-0.081136375,-689,-0.210954575
38:54.0,54556,213,0,-981,-0.300357675,-715,-0.218915125
38:54.0,54557,209,8,-2259,-0.691649325,-726,-0.22228305
38:54.0,54558,214,0,-1678,-0.51376165,-758,-0.23208065
38:54.0,54559,209,7,-377,-0.115427975,-823,-0.251982025
38:54.0,54560,215,0,-940,-0.2878045,-884,-0.2706587
38:54.0,54561,209,6,-2369,-0.725328575,-921,-0.281987175
38:54.0,54562,215,0,-1642,-0.50273935,-967,-0.296071225
38:54.0,54563,208,6,-331,-0.101343925,-1035,-0.316891125
38:54.0,54564,215,0,-985,-0.301582375,-1091,-0.334036925
38:54.0,54565,209,4,-2226,-0.68154555,-1119,-0.342609825
38:54.0,54566,216,0,-1578,-0.48314415,-1156,-0.3539383
38:54.0,54567,209,5,-369,-0.112978575,-1215,-0.372002625
38:54.0,54568,217,0,-975,-0.298520625,-1262,-0.38639285
38:54.0,54569,208,5,-2309,-0.706958075,-1281,-0.392210175
38:54.0,54570,218,0,-1703,-0.521416025,-1306,-0.39986455
38:54.0,54571,209,6,-433,-0.132573775,-1350,-0.41333625
38:54.0,54572,218,0,-866,-0.26514755,-1376,-0.4212968
38:54.0,54573,209,6,-2211,-0.676952925,-1367,-0.418541225
38:54.0,54574,218,0,-1706,-0.52233455,-1364,-0.4176227
38:54.0,54575,209,4,-451,-0.138084925,-1386,-0.42435855
38:54.0,54576,216,0,-1269,-0.388536075,-1395,-0.427114125
38:54.0,54577,210,4,-2313,-0.708182775,-1374,-0.42068445
38:54.0,54578,220,0,-1524,-0.4666107,-1359,-0.416091825
38:54.0,54579,210,4,-207,-0.063378225,-1369,-0.419153575
38:54.0,54580,217,0,-885,-0.270964875,-1369,-0.419153575
38:54.0,54581,210,4,-2389,-0.731452075,-1341,-0.410580675
38:54.0,54582,219,0,-1821,-0.557544675,-1321,-0.404457175
38:54.1,54583,209,3,-298,-0.09124015,-1328,-0.4066004
38:54.1,54584,219,0,-1002,-0.30678735,-1332,-0.4078251
38:54.1,54585,210,4,-2230,-0.68277025,-1311,-0.401395425
38:54.1,54586,219,0,-1529,-0.468141575,-1299,-0.397721325
38:54.1,54587,210,2,-233,-0.071338775,-1315,-0.402620125
38:54.1,54588,221,0,-1097,-0.335873975,-1326,-0.40598805
38:54.1,54589,211,2,-2363,-0.723491525,-1311,-0.401395425
38:54.1,54590,220,0,-1675,-0.512843125,-1301,-0.398333675
38:54.1,54591,210,2,-397,-0.121551475,-1319,-0.403844825
38:54.1,54592,220,0,-931,-0.285048925,-1332,-0.4078251
38:54.1,54593,210,3,-2184,-0.6686862,-1323,-0.405069525
38:54.1,54594,221,0,-1634,-0.50028995,-1322,-0.40476335
38:54.1,54595,211,1,-293,-0.089709275,-1343,-0.411193025
38:54.1,54596,222,0,-869,-0.266066075,-1352,-0.4139486
38:54.1,54597,208,1,-2187,-0.669604725,-1334,-0.40843745
38:54.1,54598,223,0,-1611,-0.493247925,-1326,-0.40598805
38:54.1,54599,208,1,-76,-0.0232693,-1345,-0.411805375
38:54.1,54600,222,0,-841,-0.257493175,-1356,-0.4151733
38:54.1,54601,210,1,-2282,-0.69869135,-1339,-0.409968325
38:54.2,54602,221,0,-1691,-0.517741925,-1326,-0.40598805
38:54.2,54603,209,1,-164,-0.0502127,-1333,-0.408131275
38:54.2,54604,223,0,-853,-0.261167275,-1331,-0.407518925
38:54.2,54605,211,0,-2182,-0.66807385,-1307,-0.400170725
38:54.2,54606,225,0,-1584,-0.4849812,-1299,-0.397721325
38:54.2,54607,212,0,-405,-0.124000875,-1320,-0.404151
38:54.2,54608,223,0,-989,-0.302807075,-1333,-0.408131275
38:54.2,54609,211,0,-2194,-0.67174795,-1313,-0.402007775
38:54.2,54610,224,0,-1620,-0.4960035,-1297,-0.397108975
38:54.2,54611,210,0,-326,-0.09981305,-1310,-0.40108925
38:54.2,54612,225,0,-853,-0.261167275,-1320,-0.404151
38:54.2,54613,212,0,-2220,-0.6797085,-1304,-0.3992522
38:54.2,54614,223,0,-1656,-0.5070258,-1294,-0.39619045
38:54.2,54615,210,0,-211,-0.064602925,-1306,-0.39986455
38:54.2,54616,226,0,-776,-0.2375918,-1301,-0.398333675
38:54.2,54617,210,0,-2227,-0.681851725,-1266,-0.38761755
38:54.2,54618,223,0,-1605,-0.491410875,-1243,-0.380575525
38:54.2,54619,211,0,-166,-0.05082505,-1252,-0.3833311
38:54.2,54620,226,0,-752,-0.2302436,-1258,-0.38516815
38:54.2,54621,211,0,-2122,-0.64970335,-1236,-0.3784323
38:54.2,54622,224,0,-1665,-0.509781375,-1219,-0.373227325
38:54.2,54623,212,0,-174,-0.05327445,-1228,-0.3759829
38:54.2,54624,226,0,-706,-0.21615955,-1234,-0.37781995
38:54.2,54625,210,0,-2136,-0.6539898,-1220,-0.3735335
38:54.3,54626,226,0,-1713,-0.524477775,-1216,-0.3723088
38:54.3,54627,211,0,-256,-0.0783808,-1243,-0.380575525
38:54.3,54628,226,0,-760,-0.232693,-1265,-0.387311375
38:54.3,54629,212,0,-1991,-0.609594425,-1256,-0.3845558
38:54.3,54630,228,0,-1423,-0.435687025,-1248,-0.3821064
38:54.3,54631,210,0,-287,-0.087872225,-1267,-0.387923725
38:54.3,54632,227,0,-478,-0.14635165,-1278,-0.39129165
38:54.3,54633,209,0,-1884,-0.5768337,-1260,-0.3857805
38:54.3,54634,228,0,-1479,-0.452832825,-1249,-0.382412575
38:54.3,54635,212,0,7,0.002143225,-1261,-0.386086675
38:54.3,54636,229,0,-364,-0.1114477,-1263,-0.386699025
38:54.3,54637,210,0,-1716,-0.5253963,-1236,-0.3784323
38:54.3,54638,229,0,-1284,-0.3931287,-1216,-0.3723088
38:54.3,54639,212,0,85,0.026024875,-1224,-0.3747582
38:54.3,54640,228,0,-383,-0.117265025,-1226,-0.37537055
38:54.3,54641,211,0,-1841,-0.563668175,-1199,-0.367103825
38:54.3,54642,228,0,-1358,-0.41578565,-1179,-0.360980325
38:54.3,54643,211,0,128,0.0391904,-1191,-0.364654425
38:54.3,54644,229,0,-494,-0.15125045,-1201,-0.367716175
38:54.3,54645,212,0,-2021,-0.618779675,-1183,-0.362205025
38:54.3,54646,231,0,-1789,-0.547747075,-1168,-0.3576124
38:54.4,54647,209,0,-286,-0.08756605,-1179,-0.360980325
38:54.4,54648,229,0,-669,-0.204831075,-1186,-0.36312355
38:54.4,54649,211,0,-1841,-0.563668175,-1162,-0.35577535
38:54.4,54650,229,0,-1425,-0.436299375,-1137,-0.348120975
38:54.4,54651,211,0,-91,-0.027861925,-1137,-0.348120975
38:54.4,54652,228,0,-476,-0.1457393,-1130,-0.34597775
38:54.4,54653,212,0,-1789,-0.547747075,-1091,-0.334036925
38:54.4,54654,230,0,-1493,-0.457119275,-1050,-0.32148375
38:54.4,54655,211,0,-27,-0.008266725,-1034,-0.31658495
38:54.4,54656,230,0,-433,-0.132573775,-1014,-0.31046145
38:54.4,54657,210,0,-1737,-0.531825975,-969,-0.296683575
38:54.4,54658,229,0,-1169,-0.357918575,-932,-0.2853551
38:54.4,54659,212,0,44,0.0134717,-922,-0.28229335
38:54.4,54660,230,0,-142,-0.04347685,-911,-0.278925425
38:54.4,54661,210,0,-1507,-0.461405725,-880,-0.269434
38:54.4,54662,231,0,-1065,-0.326076375,-863,-0.264229025
38:54.4,54663,209,0,524,0.1604357,-887,-0.271577225
38:54.4,54664,230,0,-82,-0.02510635,-919,-0.281374825
38:54.5,54665,210,0,-1737,-0.531825975,-930,-0.28474275
38:54.5,54666,231,0,-2023,-0.619392025,-943,-0.288723025
38:54.5,54667,211,0,-1122,-0.34352835,-980,-0.3000515
38:54.5,54668,232,0,-1485,-0.454669875,-1011,-0.309542925
38:54.5,54669,211,0,-2346,-0.71828655,-1013,-0.310155275
38:54.5,54670,231,0,-1474,-0.45130195,-1013,-0.310155275
38:54.5,54671,210,0,218,0.06674615,-1038,-0.31780965
38:54.5,54672,233,0,-204,-0.0624597,-1054,-0.32270845
38:54.5,54673,210,0,-1790,-0.54805325,-1034,-0.31658495
38:54.5,54674,232,0,-1455,-0.445484625,-1005,-0.307705875
38:54.5,54675,210,0,-120,-0.036741,-994,-0.30433795
38:54.5,54676,233,0,-246,-0.07531905,-978,-0.29943915
38:54.5,54677,212,0,-1612,-0.4935541,-935,-0.286273625
38:54.5,54678,233,0,-1296,-0.3968028,-891,-0.272801925
38:54.5,54679,210,0,122,0.03735335,-869,-0.266066075
38:54.5,54680,232,0,-190,-0.05817325,-837,-0.256268475
38:54.5,54681,209,0,-1604,-0.4911047,-779,-0.238510325
38:54.5,54682,232,0,-1336,-0.4090498,-736,-0.2253448
38:54.5,54683,210,0,232,0.0710326,-744,-0.2277942
38:54.5,54684,234,0,-48,-0.0146964,-783,-0.239735025
38:54.5,54685,211,0,-1400,-0.428645,-822,-0.25167585
38:54.6,54686,234,0,-1130,-0.34597775,-881,-0.269740175
38:54.6,54687,208,0,216,0.0661338,-1160,-0.355163
38:54.6,54688,233,0,-300,-0.0918525,-1123,-0.343834525
38:54.6,54689,210,0,-1721,-0.526927175,-1059,-0.324239325
38:54.6,54690,235,0,-1287,-0.394047225,-1092,-0.3343431
38:54.6,54691,210,0,170,0.05204975,-1130,-0.34597775
38:54.6,54692,233,0,-36,-0.0110223,-1170,-0.35822475
38:54.6,54693,211,0,-1489,-0.455894575,-1161,-0.355469175
38:54.6,54694,233,0,-1226,-0.37537055,-1117,-0.341997475
38:54.7,54695,210,0,189,0.057867075,-1072,-0.3282196
38:54.7,54696,233,0,55,0.016839625,-1023,-0.313217025
38:54.7,54697,210,0,-1486,-0.45497605,-971,-0.297295925
38:54.7,54698,235,0,-1283,-0.392822525,-905,-0.277088375
38:54.7,54699,209,0,160,0.048988,-871,-0.266678425
38:54.7,54700,234,0,130,0.03980275,-835,-0.255656125
38:54.7,54701,210,0,-1357,-0.415479475,-770,-0.23575475
38:54.7,54702,234,0,-1048,-0.3208714,-714,-0.21860895
38:54.7,54703,211,0,332,0.1016501,-702,-0.21493485
38:54.7,54704,234,0,29,0.008879075,-712,-0.2179966
38:54.7,54705,213,0,-1349,-0.413030075,-710,-0.21738425
38:54.7,54706,236,1,-1173,-0.359143275,-709,-0.217078075
38:54.7,54707,213,0,525,0.160741875,-722,-0.22105835
38:54.7,54708,235,2,159,0.048681825,-718,-0.21983365
38:54.7,54709,212,0,-1174,-0.35944945,-681,-0.208505175
38:54.7,54710,235,0,-1077,-0.329750475,-650,-0.19901375
38:54.7,54711,212,0,296,0.0906278,-661,-0.202381675
38:54.7,54712,237,2,250,0.07654375,-685,-0.209729875
38:54.7,54713,212,0,-1358,-0.41578565,-685,-0.209729875
38:54.7,54714,237,0,-1139,-0.348733325,-679,-0.207892825
38:54.7,54715,213,0,373,0.114203275,-692,-0.2118731
38:54.7,54716,235,2,72,0.0220446,-694,-0.21248545
38:54.7,54717,214,0,-1460,-0.4470155,-660,-0.2020755
38:54.7,54718,236,3,-1355,-0.414867125,-627,-0.191971725
38:54.7,54719,214,0,30,0.00918525,-626,-0.19166555
38:54.8,54720,236,1,-304,-0.0930772,-630,-0.19289025
38:54.8,54721,213,0,-1609,-0.492635575,-605,-0.185235875
38:54.8,54722,237,4,-1572,-0.4813071,-577,-0.176662975
38:54.8,54723,215,0,-181,-0.055417675,-572,-0.1751321
38:54.8,54724,236,2,-365,-0.111753875,-567,-0.173601225
38:54.8,54725,216,0,-1855,-0.567954625,-537,-0.164415975
38:54.8,54726,236,3,-1728,-0.5290704,-507,-0.155230725
38:54.8,54727,215,0,-269,-0.082361075,-507,-0.155230725
38:54.8,54728,239,5,-333,-0.101956275,-510,-0.15614925
38:54.8,54729,216,0,-1844,-0.5645867,-485,-0.148494875
38:54.8,54730,237,4,-1734,-0.53090745,-459,-0.140534325
38:54.8,54731,216,0,-188,-0.0575609,-462,-0.14145285
38:54.8,54732,238,3,-313,-0.095832775,-469,-0.143596075
38:54.8,54733,215,0,-1875,-0.574078125,-455,-0.139309625
38:54.8,54734,238,3,-1632,-0.4996776,-449,-0.137472575
38:54.8,54735,217,0,-234,-0.07164495,-479,-0.146657825
38:54.8,54736,237,4,-560,-0.171458,-516,-0.1579863
38:54.8,54737,216,0,-1767,-0.541011225,-529,-0.161966575
38:54.8,54738,238,5,-1649,-0.504882575,-543,-0.166253025
38:54.8,54739,216,0,-220,-0.0673585,-589,-0.180337075
38:54.8,54740,238,5,-354,-0.10838595,-647,-0.198095225
38:54.8,54741,217,0,-1951,-0.597347425,-685,-0.209729875
38:54.8,54742,239,5,-1774,-0.54315445,-725,-0.221976875
38:54.9,54743,215,0,-218,-0.06674615,-792,-0.2424906
38:54.9,54744,237,6,-300,-0.0918525,-857,-0.262391975
38:54.9,54745,216,0,-1766,-0.54070505,-885,-0.270964875
38:54.9,54746,238,5,-1751,-0.536112425,-906,-0.27739455
38:54.9,54747,216,0,-331,-0.101343925,-950,-0.29086625
38:54.9,54748,241,3,-417,-0.127674975,-994,-0.30433795
38:54.9,54749,217,0,-1752,-0.5364186,-1007,-0.308318225
38:54.9,54750,237,6,-1728,-0.5290704,-1012,-0.3098491
38:54.9,54751,217,0,-296,-0.0906278,-1035,-0.316891125
38:54.9,54752,238,6,-458,-0.14022815,-1053,-0.322402275
38:54.9,54753,216,0,-1843,-0.564280525,-1040,-0.318422
38:54.9,54754,240,5,-1737,-0.531825975,-1022,-0.31291085
38:54.9,54755,218,0,-406,-0.12430705,-1033,-0.316278775
38:54.9,54756,239,7,-415,-0.127062625,-1049,-0.321177575
38:54.9,54757,218,0,-1826,-0.55907555,-1039,-0.318115825
38:54.9,54758,238,6,-1709,-0.523253075,-1028,-0.3147479
38:55.0,54759,218,0,-372,-0.1138971,-1044,-0.3196467
38:55.0,54760,239,6,-428,-0.1310429,-1059,-0.324239325
38:55.0,54761,217,0,-1884,-0.5768337,-1044,-0.3196467
38:55.0,54762,241,6,-1792,-0.5486656,-1027,-0.314441725
38:55.0,54763,218,0,-506,-0.15492455,-1041,-0.318728175
38:55.0,54764,239,6,-512,-0.1567616,-1059,-0.324239325
38:55.0,54765,218,0,-2012,-0.6160241,-1051,-0.321789925
38:55.0,54766,240,7,-2064,-0.6319452,-1039,-0.318115825
38:55.0,54767,218,0,-517,-0.158292475,-1051,-0.321789925
38:55.0,54768,241,7,-370,-0.11328475,-1065,-0.326076375
38:55.0,54769,218,0,-2039,-0.624290825,-1051,-0.321789925
38:55.0,54770,243,6,-2106,-0.64480455,-1035,-0.316891125
38:55.0,54771,219,0,-348,-0.1065489,-1051,-0.321789925
38:55.0,54772,242,7,-456,-0.1396158,-1075,-0.329138125
38:55.0,54773,218,0,-1945,-0.595510375,-1073,-0.328525775
38:55.0,54774,241,7,-1956,-0.5988783,-1064,-0.3257702
38:55.0,54775,219,0,-489,-0.149719575,-1077,-0.329750475
38:55.0,54776,241,7,-349,-0.106855075,-1092,-0.3343431
38:55.0,54777,220,0,-1858,-0.56887315,-1084,-0.3318937
38:55.0,54778,243,9,-1971,-0.603470925,-1075,-0.329138125
38:55.0,54779,219,0,-614,-0.18799145,-1093,-0.334649275
38:55.0,54780,242,7,-477,-0.146045475,-1116,-0.3416913
38:55.0,54781,219,0,-1893,-0.579589275,-1113,-0.340772775
38:55.0,54782,241,6,-2028,-0.6209229,-1108,-0.3392419
38:55.0,54783,219,0,-541,-0.165640675,-1132,-0.3465901
38:55.0,54784,242,8,-663,-0.202994025,-1162,-0.35577535
38:55.0,54785,219,0,-2038,-0.62398465,-1164,-0.3563877
38:55.1,54786,242,9,-2254,-0.69011845,-1165,-0.356693875
38:55.1,54787,220,0,-668,-0.2045249,-1195,-0.365879125
38:55.1,54788,242,9,-440,-0.134717,-1225,-0.375064375
38:55.1,54789,219,0,-1836,-0.5621373,-1224,-0.3747582
38:55.1,54790,244,8,-1975,-0.604695625,-1215,-0.372002625
38:55.1,54791,219,0,-468,-0.1432899,-1232,-0.3772076
38:55.1,54792,245,10,-464,-0.1420652,-1250,-0.38271875
38:55.1,54793,219,0,-2111,-0.646335425,-1236,-0.3784323
38:55.1,54794,242,10,-2148,-0.6576639,-1213,-0.371390275
38:55.1,54795,220,0,-593,-0.181561775,-1216,-0.3723088
38:55.1,54796,245,9,-471,-0.144208425,-1229,-0.376289075
38:55.1,54797,220,0,-1900,-0.5817325,-1214,-0.37169645
38:55.1,54798,245,9,-2208,-0.6760344,-1191,-0.364654425
38:55.1,54799,220,0,-711,-0.217690425,-1199,-0.367103825
38:55.1,54800,247,10,-645,-0.197482875,-1219,-0.373227325
38:55.1,54801,219,0,-2010,-0.61541175,-1217,-0.372614975
38:55.1,54802,246,11,-2238,-0.68521965,-1214,-0.37169645
38:55.1,54803,219,0,-704,-0.2155472,-1240,-0.379657
38:55.1,54804,246,10,-396,-0.1212453,-1275,-0.390373125
38:55.1,54805,219,0,-1928,-0.5903054,-1280,-0.391904
38:55.1,54806,246,10,-2029,-0.621229075,-1273,-0.389760775
38:55.1,54807,220,0,-561,-0.171764175,-1288,-0.3943534
38:55.2,54808,247,9,-541,-0.165640675,-1307,-0.400170725
38:55.2,54809,219,0,-1989,-0.608982075,-1298,-0.39741515
38:55.2,54810,246,11,-2079,-0.636537825,-1284,-0.3931287
38:55.2,54811,218,0,-636,-0.1947273,-1295,-0.396496625
38:55.2,54812,248,10,-398,-0.12185765,-1309,-0.400783075
38:55.2,54813,219,0,-1749,-0.535500075,-1292,-0.3955781
38:55.2,54814,246,10,-2085,-0.638374875,-1267,-0.387923725
38:55.2,54815,219,0,-573,-0.175438275,-1274,-0.39006695
38:55.2,54816,248,11,-295,-0.090321625,-1295,-0.396496625
38:55.2,54817,219,0,-1785,-0.546522375,-1295,-0.396496625
38:55.2,54818,247,11,-2000,-0.61235,-1288,-0.3943534
38:55.2,54819,219,0,-451,-0.138084925,-1309,-0.400783075
38:55.2,54820,248,11,-423,-0.129512025,-1337,-0.409355975
38:55.2,54821,216,0,-1855,-0.567954625,-1335,-0.408743625
38:55.2,54822,248,10,-1965,-0.601633875,-1324,-0.4053757
38:55.2,54823,216,0,-411,-0.125837925,-1338,-0.40966215
38:55.3,54824,250,11,-133,-0.040721275,-1358,-0.41578565
38:55.3,54825,218,0,-1683,-0.515292525,-1348,-0.4127239
38:55.3,54826,250,11,-1975,-0.604695625,-1324,-0.4053757
38:55.3,54827,218,0,-637,-0.195033475,-1321,-0.404457175
38:55.3,54828,249,12,-511,-0.156455425,-1324,-0.4053757
38:55.3,54829,216,0,-1854,-0.56764845,-1303,-0.398946025
38:55.3,54830,251,11,-2133,-0.653071275,-1275,-0.390373125
38:55.3,54831,215,0,-606,-0.18554205,-1276,-0.3906793
38:55.3,54832,252,11,-267,-0.081748725,-1286,-0.39374105
38:55.3,54833,217,0,-1806,-0.55295205,-1266,-0.38761755
38:55.3,54834,249,13,-2004,-0.6135747,-1234,-0.37781995
38:55.3,54835,215,0,-566,-0.17329505,-1228,-0.3759829
38:55.3,54836,251,12,-500,-0.1530875,-1231,-0.376901425
38:55.3,54837,216,0,-1717,-0.525702475,-1211,-0.370777925
38:55.3,54838,251,11,-2130,-0.65215275,-1188,-0.3637359
38:55.3,54839,216,0,-557,-0.170539475,-1192,-0.3649606
38:55.3,54840,253,11,-270,-0.08266725,-1201,-0.367716175
38:55.3,54841,216,0,-1605,-0.491410875,-1179,-0.360980325
38:55.3,54842,252,13,-1827,-0.559381725,-1145,-0.350570375
38:55.3,54843,217,0,-292,-0.0894031,-1138,-0.34842715
38:55.3,54844,254,13,7,0.002143225,-1147,-0.351182725
38:55.3,54845,216,0,-1230,-0.37659525,-1139,-0.348733325
38:55.3,54846,253,12,-1547,-0.473652725,-1128,-0.3453654
38:55.4,54847,215,0,-617,-0.188909975,-1147,-0.351182725
38:55.4,54848,254,11,-941,-0.288110675,-1174,-0.35944945
38:55.4,54849,216,0,-2930,-0.89709275,-1171,-0.358530925
38:55.4,54850,254,13,-3089,-0.945774575,-1159,-0.354856825
38:55.4,54851,216,0,-1189,-0.364042075,-1175,-0.359755625
38:55.4,54852,254,12,-528,-0.1616604,-1203,-0.368328525
38:55.4,54853,216,0,-1745,-0.534275375,-1205,-0.368940875
38:55.4,54854,256,12,-1945,-0.595510375,-1196,-0.3661853
38:55.4,54855,215,0,-489,-0.149719575,-1208,-0.3698594
38:55.4,54856,255,12,-215,-0.065827625,-1227,-0.375676725
38:55.4,54857,214,0,-1577,-0.482837975,-1217,-0.372614975
38:55.4,54858,255,12,-1947,-0.596122725,-1194,-0.36557295
38:55.4,54859,215,0,-504,-0.1543122,-1191,-0.364654425
38:55.4,54860,256,12,-100,-0.0306175,-1190,-0.36434825
38:55.4,54861,214,0,-1636,-0.5009023,-1154,-0.35332595
38:55.5,54862,256,12,-1820,-0.5572385,-1099,-0.336486325
38:55.5,54863,214,0,-300,-0.0918525,-1066,-0.32638255
38:55.5,54864,256,12,-46,-0.01408405,-1051,-0.321789925
38:55.5,54865,215,0,-1465,-0.448546375,-1036,-0.3171973
38:55.5,54866,256,13,-1830,-0.56030025,-1045,-0.319952875
38:55.5,54867,213,0,-363,-0.111141525,-1104,-0.3380172
38:55.5,54868,255,12,-112,-0.0342916,-1330,-0.40721275
38:55.5,54869,214,0,-1444,-0.4421167,-1376,-0.4212968
38:55.5,54870,257,14,-1838,-0.56274965,-1432,-0.4384426
38:55.5,54871,214,0,-493,-0.150944275,-1519,-0.465079825
38:55.5,54872,255,14,-90,-0.02755575,-1442,-0.44150435
38:55.5,54873,214,0,-1427,-0.436911725,-1370,-0.41945975
38:55.5,54874,254,14,-1920,-0.587856,-1369,-0.419153575
38:55.5,54875,214,0,-470,-0.14390225,-1418,-0.43415615
38:55.5,54876,255,14,-78,-0.02388165,-1379,-0.422215325
38:55.5,54877,214,0,-1555,-0.476102125,-1180,-0.3612865
38:55.5,54878,255,13,-1947,-0.596122725,-1206,-0.36924705
38:55.5,54879,214,0,-431,-0.131961425,-1241,-0.379963175
38:55.5,54880,256,13,-180,-0.0551115,-1193,-0.365266775
38:55.5,54881,212,0,-1572,-0.4813071,-1122,-0.34352835
38:55.6,54882,256,13,-1731,-0.529988925,-1041,-0.318728175
38:55.6,54883,214,0,-267,-0.081748725,-993,-0.304031775
38:55.6,54884,255,15,109,0.033373075,-972,-0.2976021
38:55.6,54885,214,0,-1219,-0.373227325,-947,-0.289947725
38:55.6,54886,254,15,-1689,-0.517129575,-931,-0.285048925
38:55.6,54887,213,0,-275,-0.084198125,-952,-0.2914786
38:55.6,54888,253,16,150,0.04592625,-983,-0.300970025
38:55.6,54889,213,0,-1297,-0.397108975,-978,-0.29943915
38:55.6,54890,253,14,-1628,-0.4984529,-949,-0.290560075
38:55.6,54891,213,0,-283,-0.086647525,-942,-0.28841685
38:55.6,54892,253,16,118,0.03612865,-951,-0.291172425
38:55.6,54893,211,0,-1375,-0.420990625,-944,-0.2890292
38:55.6,54894,252,15,-1944,-0.5952042,-936,-0.2865798
38:55.6,54895,212,0,-269,-0.082361075,-961,-0.294234175
38:55.6,54896,252,16,-35,-0.010716125,-996,-0.3049503
38:55.6,54897,213,0,-1418,-0.43415615,-1002,-0.30678735
38:55.6,54898,256,15,-1884,-0.5768337,-990,-0.30311325
38:55.6,54899,214,0,-616,-0.1886038,-993,-0.304031775
38:55.6,54900,252,16,-335,-0.102568625,-1001,-0.306481175
38:55.6,54901,212,0,-1723,-0.527539525,-984,-0.3012762
38:55.6,54902,253,15,-2207,-0.675728225,-953,-0.291784775
38:55.7,54903,211,0,-857,-0.262391975,-944,-0.2890292
38:55.7,54904,253,17,-449,-0.137472575,-946,-0.28964155
38:55.7,54905,211,0,-1954,-0.59826595,-918,-0.28106865
38:55.7,54906,252,18,-2501,-0.765743675,-875,-0.267903125
38:55.7,54907,212,0,-988,-0.3025009,-855,-0.261779625
38:55.7,54908,253,17,-576,-0.1763568,-848,-0.2596364
38:55.7,54909,212,0,-2069,-0.633476075,-819,-0.250757325
38:55.7,54910,251,17,-2316,-0.7091013,-785,-0.240347375
38:55.7,54911,212,0,-1055,-0.323014625,-784,-0.2400412
38:55.7,54912,251,17,-824,-0.2522882,-802,-0.24555235
38:55.7,54913,211,0,-1957,-0.599184475,-800,-0.24494
38:55.7,54914,251,16,-2667,-0.816568725,-792,-0.2424906
38:55.7,54915,211,0,-1175,-0.359755625,-815,-0.249532625
38:55.7,54916,253,17,-483,-0.147882525,-858,-0.26269815
38:55.7,54917,211,0,-1835,-0.561831125,-883,-0.270352525
38:55.7,54918,252,16,-2474,-0.75747695,-900,-0.2755575
38:55.7,54919,211,0,-1120,-0.342916,-944,-0.2890292
38:55.7,54920,251,18,-625,-0.191359375,-1003,-0.307093525
38:55.7,54921,212,0,-1932,-0.5915301,-1040,-0.318422
38:55.7,54922,252,20,-2487,-0.761457225,-1070,-0.32760725
38:55.7,54923,211,0,-1014,-0.31046145,-1131,-0.346283925
38:55.7,54924,251,19,-617,-0.188909975,-1209,-0.370165575
38:55.7,54925,211,0,-1882,-0.57622135,-1260,-0.3857805
38:55.7,54926,252,18,-2389,-0.731452075,-1295,-0.396496625
38:55.7,54927,212,0,-1187,-0.363429725,-1345,-0.411805375
38:55.7,54928,251,19,-600,-0.183705,-1401,-0.428951175
38:55.7,54929,209,0,-1739,-0.532438325,-1432,-0.4384426
38:55.7,54930,252,19,-2451,-0.750434925,-1449,-0.443647575
38:55.8,54931,209,0,-1194,-0.36557295,-1490,-0.45620075
38:55.8,54932,250,19,-676,-0.2069743,-1540,-0.4715095
38:55.8,54933,210,0,-1916,-0.5866313,-1553,-0.475489775
38:55.8,54934,250,21,-2441,-0.747373175,-1540,-0.4715095
38:55.8,54935,209,0,-1179,-0.360980325,-1546,-0.47334655
38:55.8,54936,250,22,-511,-0.156455425,-1565,-0.479163875
38:55.8,54937,208,0,-1774,-0.54315445,-1560,-0.477633
38:55.8,54938,250,21,-2414,-0.73910645,-1543,-0.472428025
38:55.8,54939,209,0,-1217,-0.372614975,-1548,-0.4739589
38:55.8,54940,251,21,-673,-0.206055775,-1562,-0.47824535
38:55.8,54941,210,0,-1887,-0.577752225,-1551,-0.474877425
38:55.8,54942,250,20,-2558,-0.78319565,-1523,-0.466304525
38:55.8,54943,208,0,-1137,-0.348120975,-1517,-0.464467475
38:55.8,54944,250,22,-509,-0.155843075,-1530,-0.46844775
38:55.8,54945,208,0,-1871,-0.572853425,-1524,-0.4666107
38:55.8,54946,250,20,-2521,-0.771867175,-1501,-0.459568675
38:55.8,54947,209,0,-1117,-0.341997475,-1500,-0.4592625
38:55.8,54948,249,22,-561,-0.171764175,-1516,-0.4641613
38:55.8,54949,209,0,-1859,-0.569179325,-1514,-0.46354895
38:55.9,54950,247,21,-2529,-0.774316575,-1499,-0.458956325
38:55.9,54951,209,0,-1197,-0.366491475,-1508,-0.4617119
38:55.9,54952,249,22,-733,-0.224426275,-1531,-0.468753925
38:55.9,54953,211,0,-2150,-0.65827625,-1528,-0.4678354
38:55.9,54954,247,23,-2807,-0.859433225,-1507,-0.461405725
38:55.9,54955,209,0,-1318,-0.40353865,-1507,-0.461405725
38:55.9,54956,248,23,-761,-0.232999175,-1524,-0.4666107
38:55.9,54957,208,0,-2019,-0.618167325,-1524,-0.4666107
38:55.9,54958,250,23,-2744,-0.8401442,-1511,-0.462630425
38:55.9,54959,208,0,-1383,-0.423440025,-1519,-0.465079825
38:55.9,54960,248,23,-850,-0.26024875,-1539,-0.471203325
38:55.9,54961,207,0,-1953,-0.597959775,-1534,-0.46967245
38:56.0,54962,249,24,-2560,-0.783808,-1515,-0.463855125
38:56.0,54963,208,0,-1319,-0.403844825,-1519,-0.465079825
38:56.0,54964,247,24,-680,-0.208199,-1538,-0.47089715
38:56.0,54965,208,0,-2050,-0.62765875,-1536,-0.4702848
38:56.0,54966,249,24,-2767,-0.847186225,-1518,-0.46477365
38:56.0,54967,207,0,-1260,-0.3857805,-1521,-0.465692175
38:56.0,54968,248,25,-875,-0.267903125,-1540,-0.4715095
38:56.0,54969,208,0,-2080,-0.636844,-1541,-0.471815675
38:56.0,54970,248,24,-2741,-0.839225675,-1534,-0.46967245
38:56.0,54971,207,0,-1587,-0.485899725,-1554,-0.47579595
38:56.0,54972,248,26,-699,-0.214016325,-1591,-0.487124425
38:56.0,54973,207,0,-2162,-0.66195035,-1605,-0.491410875
38:56.0,54974,248,26,-2879,-0.881477825,-1603,-0.490798525
38:56.0,54975,208,0,-1457,-0.446096975,-1625,-0.497534375
38:56.0,54976,249,26,-703,-0.215241025,-1667,-0.510393725
38:56.0,54977,208,0,-1974,-0.60438945,-1688,-0.5168234
38:56.0,54978,250,27,-2718,-0.83218365,-1690,-0.51743575
38:56.0,54979,207,0,-1472,-0.4506896,-1708,-0.5229469
38:56.0,54980,248,26,-747,-0.228712725,-1734,-0.53090745
38:56.0,54981,206,0,-2010,-0.61541175,-1730,-0.52968275
38:56.0,54982,249,26,-2871,-0.879028425,-1706,-0.52233455
38:56.1,54983,206,0,-1663,-0.509169025,-1705,-0.522028375
38:56.1,54984,249,25,-765,-0.234223875,-1720,-0.526621
38:56.1,54985,207,0,-2055,-0.629189625,-1714,-0.52478395
38:56.1,54986,249,26,-3012,-0.9221991,-1694,-0.51866045
38:56.1,54987,205,0,-1523,-0.466304525,-1697,-0.519578975
38:56.1,54988,248,25,-918,-0.28106865,-1719,-0.526314825
38:56.1,54989,206,0,-2267,-0.694098725,-1723,-0.527539525
38:56.1,54990,250,25,-3058,-0.93628315,-1724,-0.5278457
38:56.1,54991,205,0,-1711,-0.523865425,-1745,-0.534275375
38:56.1,54992,250,25,-1015,-0.310767625,-1763,-0.539786525
38:56.1,54993,206,0,-2208,-0.6760344,-1758,-0.53825565
38:56.1,54994,248,25,-2805,-0.858820875,-1751,-0.536112425
38:56.1,54995,206,0,-1642,-0.50273935,-1763,-0.539786525
38:56.1,54996,250,24,-963,-0.294846525,-1773,-0.542848275
38:56.1,54997,205,0,-2205,-0.675115875,-1764,-0.5400927
38:56.1,54998,248,25,-3015,-0.923117625,-1756,-0.5376433
38:56.1,54999,207,0,-1604,-0.4911047,-1770,-0.54192975
38:56.1,55000,250,24,-754,-0.23085595,-1786,-0.54682855
38:56.1,55001,204,0,-1988,-0.6086759,-1784,-0.5462162
38:56.1,55002,248,24,-2823,-0.864332025,-1764,-0.5400927
38:56.2,55003,207,0,-1652,-0.5058011,-1770,-0.54192975
38:56.2,55004,249,23,-881,-0.269740175,-1799,-0.550808825
38:56.2,55005,205,0,-2051,-0.627964925,-1811,-0.554482925
38:56.2,55006,249,25,-2841,-0.869843175,-1809,-0.553870575
38:56.2,55007,205,0,-1420,-0.4347685,-1830,-0.56030025
38:56.2,55008,245,24,-945,-0.289335375,-1870,-0.57254725
38:56.2,55009,205,0,-2270,-0.69501725,-1891,-0.578976925
38:56.2,55010,247,24,-3190,-0.97669825,-1892,-0.5792831
38:56.2,55011,204,0,-2002,-0.61296235,-1908,-0.5841819
38:56.2,55012,248,22,-974,-0.29821445,-1941,-0.594285675
38:56.2,55013,205,0,-2026,-0.62031055,-1950,-0.59704125
38:56.2,55014,248,23,-2979,-0.912095325,-1938,-0.59336715
38:56.2,55015,205,0,-1739,-0.532438325,-1943,-0.594898025
38:56.2,55016,247,24,-996,-0.3049503,-1963,-0.601021525
38:56.2,55017,204,0,-2241,-0.686138175,-1955,-0.598572125
38:56.2,55018,246,24,-2942,-0.90076685,-1925,-0.589386875
38:56.2,55019,206,0,-1779,-0.544685325,-1914,-0.58601895
38:56.2,55020,247,22,-784,-0.2400412,-1922,-0.58846835
38:56.2,55021,205,0,-1907,-0.583875725,-1910,-0.58479425
38:56.2,55022,245,21,-2773,-0.849023275,-1880,-0.575609
38:56.2,55023,203,0,-1315,-0.402620125,-1867,-0.571628725
38:56.2,55024,246,22,-541,-0.165640675,-1871,-0.572853425
38:56.2,55025,205,0,-1571,-0.481000925,-1857,-0.568566975
38:56.2,55026,246,22,-2177,-0.666542975,-1834,-0.56152495
38:56.2,55027,206,0,-1143,-0.349958025,-1844,-0.5645867
38:56.3,55028,245,22,-793,-0.242796775,-1883,-0.576527525
38:56.3,55029,204,0,-2730,-0.83585775,-1904,-0.5829572
38:56.3,55030,245,24,-4145,-1.269095375,-1901,-0.582038675
38:56.3,55031,205,0,-2899,-0.887601325,-1914,-0.58601895
38:56.3,55032,244,21,-1599,-0.489573825,-1947,-0.596122725
38:56.3,55033,205,0,-2139,-0.654908325,-1962,-0.60071535
38:56.3,55034,243,21,-2765,-0.846573875,-1961,-0.600409175
38:56.3,55035,205,0,-1529,-0.468141575,-1979,-0.605920325
38:56.3,55036,244,20,-418,-0.12798115,-2010,-0.61541175
38:56.3,55037,205,0,-1652,-0.5058011,-2009,-0.615105575
38:56.3,55038,243,20,-2700,-0.8266725,-1976,-0.6050018
38:56.3,55039,204,0,-1437,-0.439973475,-1954,-0.59826595
38:56.3,55040,243,20,-535,-0.163803625,-1946,-0.59581655
38:56.3,55041,207,0,-1631,-0.499371425,-1916,-0.5866313
38:56.3,55042,243,21,-2567,-0.785951225,-1857,-0.568566975
38:56.3,55043,206,0,-1441,-0.441198175,-1804,-0.5523397
38:56.3,55044,242,20,-417,-0.127674975,-1761,-0.539174175
38:56.3,55045,207,0,-1538,-0.47089715,-1708,-0.5229469
38:56.3,55046,241,20,-2579,-0.789625325,-1665,-0.509781375
38:56.3,55047,206,0,-1483,-0.454057525,-1683,-0.515292525
38:56.4,55048,242,19,-767,-0.234836225,-1836,-0.5621373
38:56.4,55049,207,0,-1663,-0.509169025,-2066,-0.63255755
38:56.4,55050,243,19,-2477,-0.758395475,-2154,-0.65950095
38:56.4,55051,208,0,-1194,-0.36557295,-2289,-0.700834575
38:56.4,55052,243,19,-218,-0.06674615,-2244,-0.6870567
38:56.4,55053,209,0,-1390,-0.42558325,-2023,-0.619392025
38:56.4,55054,243,19,-2303,-0.705121025,-1904,-0.5829572
38:56.4,55055,210,0,-1210,-0.37047175,-1924,-0.5890807
38:56.4,55056,240,17,-234,-0.07164495,-1910,-0.58479425
38:56.4,55057,208,0,-1259,-0.385474325,-1653,-0.506107275
38:56.4,55058,241,19,-2443,-0.747985525,-1551,-0.474877425
38:56.5,55059,209,0,-1317,-0.403232475,-1735,-0.531213625
38:56.5,55060,241,18,-247,-0.075625225,-1796,-0.5498903
38:56.5,55061,211,0,-1369,-0.419153575,-1698,-0.51988515
38:56.5,55062,241,16,-2136,-0.6539898,-1651,-0.505494925
38:56.5,55063,210,0,-934,-0.28596745,-1578,-0.48314415
38:56.5,55064,241,19,71,0.021738425,-1541,-0.471815675
38:56.5,55065,211,0,-1111,-0.340160425,-1511,-0.462630425
38:56.5,55066,241,17,-2187,-0.669604725,-1485,-0.454669875
38:56.5,55067,212,0,-919,-0.281374825,-1498,-0.45865015
38:56.5,55068,240,18,45,0.013777875,-1540,-0.4715095
38:56.5,55069,212,0,-933,-0.285661275,-1558,-0.47702065
38:56.5,55070,240,16,-1799,-0.550808825,-1536,-0.4702848
38:56.5,55071,212,0,-875,-0.267903125,-1510,-0.46232425
38:56.5,55072,240,16,143,0.043783025,-1492,-0.4568131
38:56.5,55073,211,0,-990,-0.30311325,-1452,-0.4445661
38:56.5,55074,238,17,-2112,-0.6466416,-1397,-0.427726475
38:56.5,55075,213,0,-1042,-0.31903435,-1372,-0.4200721
38:56.5,55076,238,16,176,0.0538868,-1377,-0.421602975
38:56.5,55077,215,0,-806,-0.24677705,-1368,-0.4188474
38:56.5,55078,238,17,-2115,-0.647560125,-1334,-0.40843745
38:56.5,55079,214,0,-1102,-0.33740485,-1312,-0.4017016
38:56.6,55080,238,17,-3,-0.000918525,-1303,-0.398946025
38:56.6,55081,214,0,-1199,-0.367103825,-1272,-0.3894546
38:56.6,55082,239,16,-2281,-0.698385175,-1222,-0.37414585
38:56.6,55083,214,0,-1185,-0.362817375,-1198,-0.36679765
38:56.6,55084,238,16,-55,-0.016839625,-1201,-0.367716175
38:56.6,55085,214,0,-942,-0.28841685,-1188,-0.3637359
38:56.6,55086,238,17,-2013,-0.616330275,-1146,-0.35087655
38:56.6,55087,215,0,-1274,-0.39006695,-1111,-0.340160425
38:56.6,55088,236,17,-355,-0.108692125,-1091,-0.334036925
38:56.6,55089,215,0,-1115,-0.341385125,-1053,-0.322402275
38:56.6,55090,236,15,-2205,-0.675115875,-997,-0.305256475
38:56.6,55091,215,0,-1333,-0.408131275,-969,-0.296683575
38:56.6,55092,237,16,-124,-0.0379657,-972,-0.2976021
38:56.6,55093,213,0,-1151,-0.352407425,-962,-0.29454035
38:56.6,55094,237,16,-2199,-0.673278825,-932,-0.2853551
38:56.6,55095,216,0,-1199,-0.367103825,-926,-0.28351805
38:56.6,55096,236,16,-205,-0.062765875,-952,-0.2914786
38:56.6,55097,214,0,-1138,-0.34842715,-967,-0.296071225
38:56.6,55098,236,16,-2356,-0.7213483,-963,-0.294846525
38:56.6,55099,216,0,-1156,-0.3539383,-976,-0.2988268
38:56.6,55100,235,16,-120,-0.036741,-1012,-0.3098491
38:56.6,55101,216,0,-1251,-0.383024925,-1032,-0.3159726
38:56.7,55102,235,16,-2222,-0.68032085,-1027,-0.314441725
38:56.7,55103,215,0,-1155,-0.353632125,-1039,-0.318115825
38:56.7,55104,234,16,-27,-0.008266725,-1083,-0.331587525
38:56.7,55105,215,0,-989,-0.302807075,-1116,-0.3416913
38:56.7,55106,236,16,-2280,-0.698079,-1118,-0.34230365
38:56.7,55107,215,0,-1024,-0.3135232,-1124,-0.3441407
38:56.7,55108,235,17,40,0.012247,-1148,-0.3514889
38:56.7,55109,215,0,-1051,-0.321789925,-1158,-0.35455065
38:56.7,55110,235,16,-2207,-0.675728225,-1148,-0.3514889
38:56.7,55111,216,0,-1278,-0.39129165,-1155,-0.353632125
38:56.7,55112,233,16,-80,-0.024494,-1188,-0.3637359
38:56.7,55113,216,0,-971,-0.297295925,-1205,-0.368940875
38:56.7,55114,233,16,-2142,-0.65582685,-1195,-0.365879125
38:56.7,55115,215,0,-1190,-0.36434825,-1192,-0.3649606
38:56.7,55116,234,15,-66,-0.02020755,-1205,-0.368940875
38:56.7,55117,219,0,-993,-0.304031775,-1205,-0.368940875
38:56.7,55118,233,17,-2242,-0.68644435,-1190,-0.36434825
38:56.7,55119,218,0,-1212,-0.3710841,-1193,-0.365266775
38:56.7,55120,233,16,-122,-0.03735335,-1216,-0.3723088
38:56.7,55121,216,0,-1129,-0.345671575,-1218,-0.37292115
38:56.7,55122,231,16,-2181,-0.667767675,-1190,-0.36434825
38:56.7,55123,217,0,-1344,-0.4114992,-1173,-0.359143275
38:56.7,55124,230,14,-65,-0.019901375,-1177,-0.360367975
38:56.7,55125,215,0,-1032,-0.3159726,-1166,-0.35700005
38:56.7,55126,233,16,-2226,-0.68154555,-1134,-0.34720245
38:56.7,55127,215,0,-1261,-0.386086675,-1123,-0.343834525
38:56.7,55128,232,15,-207,-0.063378225,-1140,-0.3490395
38:56.7,55129,217,0,-1063,-0.325464025,-1139,-0.348733325
38:56.7,55130,231,15,-2269,-0.694711075,-1110,-0.33985425
38:56.8,55131,216,0,-1173,-0.359143275,-1096,-0.3355678
38:56.8,55132,231,15,-154,-0.04715095,-1109,-0.339548075
38:56.8,55133,218,0,-1058,-0.32393315,-1113,-0.340772775
38:56.8,55134,230,16,-2258,-0.69134315,-1093,-0.334649275
38:56.8,55135,219,0,-1386,-0.42435855,-1092,-0.3343431
38:56.8,55136,229,13,-171,-0.052355925,-1118,-0.34230365
38:56.8,55137,217,0,-971,-0.297295925,-1131,-0.346283925
38:56.8,55138,230,15,-2345,-0.717980375,-1118,-0.34230365
38:56.8,55139,218,0,-1453,-0.444872275,-1117,-0.341997475
38:56.8,55140,229,14,-233,-0.071338775,-1142,-0.34965185
38:56.8,55141,218,0,-1003,-0.307093525,-1154,-0.35332595
38:56.8,55142,228,13,-2489,-0.762069575,-1140,-0.3490395
38:56.8,55143,219,0,-1487,-0.455282225,-1139,-0.348733325
38:56.9,55144,228,13,-356,-0.1089983,-1161,-0.355469175
38:56.9,55145,219,0,-1182,-0.36189885,-1172,-0.3588371
38:56.9,55146,230,13,-2446,-0.74890405,-1159,-0.354856825
38:56.9,55147,218,0,-1573,-0.481613275,-1160,-0.355163
38:56.9,55148,229,12,-340,-0.1040995,-1184,-0.3625112
38:56.9,55149,220,0,-1253,-0.383637275,-1192,-0.3649606
38:56.9,55150,228,13,-2454,-0.75135345,-1174,-0.35944945
38:56.9,55151,220,0,-1632,-0.4996776,-1167,-0.357306225
38:56.9,55152,227,12,-400,-0.12247,-1186,-0.36312355
38:56.9,55153,221,0,-1305,-0.399558375,-1193,-0.365266775
38:56.9,55154,228,12,-2626,-0.80401555,-1176,-0.3600618
38:56.9,55155,221,0,-1670,-0.51131225,-1175,-0.359755625
38:56.9,55156,228,12,-604,-0.1849297,-1202,-0.36802235
38:56.9,55157,222,0,-1338,-0.40966215,-1216,-0.3723088
38:56.9,55158,226,11,-2526,-0.77339805,-1204,-0.3686347
38:56.9,55159,221,0,-1755,-0.537337125,-1208,-0.3698594
38:56.9,55160,228,11,-535,-0.163803625,-1239,-0.379350825
38:56.9,55161,222,0,-1230,-0.37659525,-1258,-0.38516815
38:57.0,55162,228,11,-2438,-0.74645465,-1254,-0.38394345
38:57.0,55163,221,0,-1555,-0.476102125,-1263,-0.386699025
38:57.0,55164,226,9,-260,-0.0796055,-1301,-0.398333675
38:57.0,55165,223,0,-1165,-0.356693875,-1328,-0.4066004
38:57.0,55166,228,9,-2444,-0.7482917,-1327,-0.406294225
38:57.0,55167,224,0,-1476,-0.4519143,-1336,-0.4090498
38:57.0,55168,227,9,-306,-0.09368955,-1368,-0.4188474
38:57.0,55169,224,0,-1172,-0.3588371,-1389,-0.425277075
38:57.0,55170,228,9,-2429,-0.743699075,-1385,-0.424052375
38:57.0,55171,224,0,-1747,-0.534887725,-1394,-0.42680795
38:57.0,55172,228,9,-390,-0.11940825,-1429,-0.437524075
38:57.0,55173,224,0,-1248,-0.3821064,-1454,-0.44517845
38:57.0,55174,225,7,-2376,-0.7274718,-1452,-0.4445661
38:57.0,55175,224,0,-1684,-0.5155987,-1459,-0.446709325
38:57.0,55176,227,8,-513,-0.157067775,-1491,-0.456506925
38:57.0,55177,226,0,-1082,-0.33128135,-1510,-0.46232425
38:57.0,55178,227,9,-2352,-0.7201236,-1502,-0.45987485
38:57.0,55179,226,0,-1649,-0.504882575,-1501,-0.459568675
38:57.0,55180,227,9,-357,-0.109304475,-1521,-0.465692175
38:57.0,55181,227,0,-1017,-0.311379975,-1523,-0.466304525
38:57.0,55182,226,8,-2343,-0.717368025,-1495,-0.457731625
38:57.0,55183,227,0,-1523,-0.466304525,-1474,-0.45130195
38:57.0,55184,228,8,-212,-0.0649091,-1473,-0.450995775
38:57.0,55185,228,0,-1015,-0.310767625,-1459,-0.446709325
38:57.0,55186,226,8,-2244,-0.6870567,-1421,-0.435074675
38:57.0,55187,228,0,-1453,-0.444872275,-1396,-0.4274203
38:57.0,55188,225,7,-221,-0.067664675,-1400,-0.428645
38:57.0,55189,229,0,-930,-0.28474275,-1399,-0.428338825
38:57.1,55190,225,7,-2411,-0.738187925,-1376,-0.4212968
38:57.1,55191,229,0,-1605,-0.491410875,-1368,-0.4188474
38:57.1,55192,224,6,-157,-0.048069475,-1392,-0.4261956
38:57.1,55193,231,0,-628,-0.1922779,-1408,-0.4310944
38:57.1,55194,225,7,-1789,-0.547747075,-1397,-0.427726475
38:57.1,55195,229,0,-1034,-0.31658495,-1396,-0.4274203
38:57.1,55196,226,6,263,0.080524025,-1420,-0.4347685
38:57.1,55197,231,0,-134,-0.04102745,-1432,-0.4384426
38:57.1,55198,226,6,-1725,-0.528151875,-1413,-0.432625275
38:57.1,55199,230,0,-1481,-0.453445175,-1398,-0.42803265
38:57.1,55200,225,5,-662,-0.20268785,-1405,-0.430175875
38:57.1,55201,231,0,-2011,-0.615717925,-1399,-0.428338825
38:57.1,55202,224,5,-3405,-1.042525875,-1366,-0.41823505
38:57.1,55203,231,0,-2224,-0.6809332,-1341,-0.410580675
38:57.1,55204,226,5,-370,-0.11328475,-1339,-0.409968325
38:57.1,55205,231,0,-691,-0.211566925,-1327,-0.406294225
38:57.1,55206,225,7,-1952,-0.5976536,-1291,-0.395271925
38:57.1,55207,233,0,-1439,-0.440585825,-1270,-0.38884225
38:57.1,55208,224,5,8,0.0024494,-1280,-0.391904
38:57.2,55209,232,0,-435,-0.133186125,-1280,-0.391904
38:57.2,55210,226,5,-1963,-0.601021525,-1248,-0.3821064
38:57.2,55211,231,0,-1303,-0.398946025,-1217,-0.372614975
38:57.2,55212,226,4,183,0.056030025,-1205,-0.368940875
38:57.2,55213,232,0,-502,-0.15369985,-1177,-0.360367975
38:57.2,55214,227,6,-1838,-0.56274965,-1111,-0.340160425
38:57.2,55215,233,0,-1104,-0.3380172,-1050,-0.32148375
38:57.2,55216,226,4,269,0.082361075,-1024,-0.3135232
38:57.2,55217,234,0,-463,-0.141759025,-1011,-0.309542925
38:57.2,55218,225,4,-1724,-0.5278457,-1002,-0.30678735
38:57.2,55219,234,0,-1168,-0.3576124,-1032,-0.3159726
38:57.2,55220,226,3,82,0.02510635,-1417,-0.433849975
38:57.2,55221,234,0,-405,-0.124000875,-1505,-0.460793375
38:57.2,55222,225,4,-1804,-0.5523397,-1444,-0.4421167
38:57.2,55223,233,0,-1052,-0.3220961,-1494,-0.45742545
38:57.2,55224,225,4,310,0.09491425,-1478,-0.45252665
38:57.2,55225,235,0,-288,-0.0881784,-1321,-0.404457175
38:57.3,55226,226,4,-1687,-0.516517225,-1205,-0.368940875
38:57.3,55227,236,0,-1213,-0.371390275,-1171,-0.358530925
38:57.3,55228,225,3,268,0.0820549,-1168,-0.3576124
38:57.3,55229,236,0,-278,-0.08511665,-1022,-0.31291085
38:57.3,55230,227,3,-1659,-0.507944325,-964,-0.2951527
38:57.3,55231,236,0,-1038,-0.31780965,-1099,-0.336486325
38:57.3,55232,225,3,295,0.090321625,-1096,-0.3355678
38:57.3,55233,237,0,-358,-0.10961065,-1020,-0.3122985
38:57.3,55234,225,2,-1559,-0.477326825,-927,-0.283824225
38:57.3,55235,238,0,-884,-0.2706587,-848,-0.2596364
38:57.3,55236,227,2,513,0.157067775,-816,-0.2498388
38:57.3,55237,237,0,-143,-0.043783025,-807,-0.247083225
38:57.3,55238,225,0,-1386,-0.42435855,-794,-0.24310295
38:57.3,55239,237,0,-768,-0.2351424,-799,-0.244633825
38:57.3,55240,226,0,590,0.18064325,-828,-0.2535129
38:57.3,55241,236,0,22,0.00673585,-835,-0.255656125
38:57.3,55242,225,1,-1398,-0.42803265,-799,-0.244633825
38:57.3,55243,236,0,-844,-0.2584117,-763,-0.233611525
38:57.3,55244,225,1,634,0.19411495,-759,-0.232386825
38:57.3,55245,238,0,2,0.00061235,-758,-0.23208065
38:57.4,55246,223,0,-1343,-0.411193025,-738,-0.22595715
38:57.4,55247,237,0,-842,-0.25779935,-730,-0.22350775
38:57.4,55248,224,0,498,0.15247515,-747,-0.228712725
38:57.4,55249,238,0,-193,-0.059091775,-752,-0.2302436
38:57.4,55250,226,1,-1531,-0.468753925,-725,-0.221976875
38:57.4,55251,236,0,-1041,-0.318728175,-699,-0.214016325
38:57.4,55252,225,0,298,0.09124015,-697,-0.213403975
38:57.4,55253,238,0,-281,-0.086035175,-688,-0.2106484
38:57.4,55254,224,0,-1788,-0.5474409,-654,-0.20023845
38:57.4,55255,239,0,-1332,-0.4078251,-625,-0.191359375
38:57.4,55256,226,0,25,0.007654375,-621,-0.190134675
38:57.4,55257,239,0,-513,-0.157067775,-609,-0.186460575
38:57.4,55258,225,0,-2029,-0.621229075,-568,-0.1739074
38:57.4,55259,238,0,-1548,-0.4739589,-530,-0.16227275
38:57.4,55260,225,0,-123,-0.037659525,-517,-0.158292475
38:57.4,55261,238,0,-571,-0.174825925,-496,-0.1518628
38:57.4,55262,224,0,-2108,-0.6454169,-450,-0.13777875
38:57.4,55263,238,0,-1682,-0.51498635,-417,-0.127674975
38:57.5,55264,223,0,-182,-0.05572385,-419,-0.128287325
38:57.5,55265,238,0,-704,-0.2155472,-423,-0.129512025
38:57.5,55266,224,0,-2085,-0.638374875,-407,-0.124613225
38:57.5,55267,238,0,-1670,-0.51131225,-404,-0.1236947
38:57.5,55268,224,0,-85,-0.026024875,-433,-0.132573775
38:57.5,55269,239,0,-673,-0.206055775,-460,-0.1408405
38:57.5,55270,222,0,-2087,-0.638987225,-465,-0.142371375
38:57.5,55271,238,0,-1674,-0.51253695,-481,-0.147270175
38:57.5,55272,224,0,-214,-0.06552145,-532,-0.1628851
38:57.5,55273,236,0,-730,-0.22350775,-586,-0.17941855
38:57.5,55274,223,0,-2017,-0.617554975,-618,-0.18921615
38:57.5,55275,239,0,-1667,-0.510393725,-660,-0.2020755
38:57.5,55276,224,0,-192,-0.0587856,-731,-0.223813925
38:57.5,55277,238,0,-622,-0.19044085,-795,-0.243409125
38:57.5,55278,223,0,-2184,-0.6686862,-829,-0.253819075
38:57.5,55279,239,0,-1599,-0.489573825,-866,-0.26514755
38:57.5,55280,222,0,-187,-0.057254725,-930,-0.28474275
38:57.5,55281,238,0,-685,-0.209729875,-988,-0.3025009
38:57.5,55282,223,0,-2134,-0.65337745,-1014,-0.31046145
38:57.5,55283,238,0,-1616,-0.4947788,-1038,-0.31780965
38:57.6,55284,224,0,-295,-0.090321625,-1085,-0.332199875
38:57.6,55285,239,0,-716,-0.2192213,-1120,-0.342916
38:57.6,55286,222,0,-2034,-0.62275995,-1119,-0.342609825
38:57.6,55287,239,0,-1597,-0.488961475,-1117,-0.341997475
38:57.6,55288,223,0,-150,-0.04592625,-1140,-0.3490395
38:57.6,55289,239,0,-687,-0.210342225,-1159,-0.354856825
38:57.6,55290,222,0,-2100,-0.6429675,-1148,-0.3514889
38:57.6,55291,238,0,-1773,-0.542848275,-1138,-0.34842715
38:57.6,55292,222,0,-191,-0.058479425,-1155,-0.353632125
38:57.6,55293,239,0,-545,-0.166865375,-1168,-0.3576124
38:57.6,55294,220,0,-2057,-0.629801975,-1152,-0.3527136
38:57.6,55295,239,0,-1744,-0.5339692,-1140,-0.3490395
38:57.6,55296,221,0,-166,-0.05082505,-1155,-0.353632125
38:57.6,55297,239,0,-593,-0.181561775,-1166,-0.35700005
38:57.6,55298,219,0,-2095,-0.641436625,-1150,-0.35210125
38:57.6,55299,239,0,-1770,-0.54192975,-1139,-0.348733325
38:57.6,55300,221,0,-363,-0.111141525,-1157,-0.354244475
38:57.6,55301,240,0,-668,-0.2045249,-1173,-0.359143275
38:57.6,55302,221,0,-2046,-0.62643405,-1162,-0.35577535
38:57.6,55303,240,0,-1698,-0.51988515,-1151,-0.352407425
38:57.6,55304,221,0,-299,-0.091546325,-1165,-0.356693875
38:57.6,55305,241,0,-646,-0.19778905,-1174,-0.35944945
38:57.7,55306,222,0,-2155,-0.659807125,-1155,-0.353632125
38:57.7,55307,241,0,-1913,-0.585712775,-1142,-0.34965185
38:57.7,55308,221,0,-424,-0.1298182,-1161,-0.355469175
38:57.7,55309,240,0,-846,-0.25902405,-1177,-0.360367975
38:57.7,55310,221,0,-2169,-0.664093575,-1160,-0.355163
38:57.7,55311,238,0,-1935,-0.592448625,-1145,-0.350570375
38:57.7,55312,220,0,-277,-0.084810475,-1157,-0.354244475
38:57.7,55313,240,0,-763,-0.233611525,-1166,-0.35700005
38:57.7,55314,220,0,-2298,-0.70359015,-1147,-0.351182725
38:57.7,55315,241,0,-1895,-0.580201625,-1134,-0.34720245
38:57.7,55316,222,0,-315,-0.096445125,-1153,-0.353019775
38:57.7,55317,242,0,-633,-0.193808775,-1171,-0.358530925
38:57.7,55318,221,0,-2116,-0.6478663,-1160,-0.355163
38:57.7,55319,243,0,-1884,-0.5768337,-1150,-0.35210125
38:57.7,55320,220,0,-403,-0.123388525,-1168,-0.3576124
38:57.7,55321,243,0,-742,-0.22718185,-1187,-0.363429725
38:57.7,55322,221,0,-2303,-0.705121025,-1178,-0.36067415
38:57.7,55323,241,0,-1981,-0.606532675,-1171,-0.358530925
38:57.7,55324,221,0,-318,-0.09736365,-1194,-0.36557295
38:57.7,55325,243,0,-642,-0.19656435,-1218,-0.37292115
38:57.8,55326,221,0,-2128,-0.6515404,-1217,-0.372614975
38:57.8,55327,244,0,-1891,-0.578976925,-1217,-0.372614975
38:57.8,55328,221,0,-206,-0.06307205,-1246,-0.38149405
38:57.8,55329,243,0,-645,-0.197482875,-1272,-0.3894546
38:57.8,55330,222,0,-2271,-0.695323425,-1270,-0.38884225
38:57.8,55331,244,0,-1981,-0.606532675,-1270,-0.38884225
38:57.8,55332,221,0,-402,-0.12308235,-1296,-0.3968028
38:57.8,55333,245,0,-612,-0.1873791,-1316,-0.4029263
38:57.8,55334,222,0,-2065,-0.632251375,-1304,-0.3992522
38:57.8,55335,243,0,-1875,-0.574078125,-1290,-0.39496575
38:57.8,55336,221,0,-314,-0.09613895,-1304,-0.3992522
38:57.9,55337,245,0,-535,-0.163803625,-1316,-0.4029263
38:57.9,55338,223,0,-2054,-0.62888345,-1301,-0.398333675
38:57.9,55339,245,0,-1888,-0.5780584,-1286,-0.39374105
38:57.9,55340,223,0,-303,-0.092771025,-1300,-0.3980275
38:57.9,55341,245,1,-454,-0.13900345,-1312,-0.4017016
38:57.9,55342,222,0,-2006,-0.61418705,-1292,-0.3955781
38:57.9,55343,245,0,-1752,-0.5364186,-1274,-0.39006695
38:57.9,55344,223,0,-164,-0.0502127,-1289,-0.394659575
38:57.9,55345,244,0,-537,-0.164415975,-1304,-0.3992522
38:57.9,55346,223,0,-1798,-0.55050265,-1289,-0.394659575
38:57.9,55347,245,1,-1516,-0.4641613,-1274,-0.39006695
38:57.9,55348,223,0,-122,-0.03735335,-1286,-0.39374105
38:57.9,55349,246,1,-198,-0.06062265,-1298,-0.39741515
38:57.9,55350,223,0,-1793,-0.548971775,-1278,-0.39129165
38:57.9,55351,245,0,-1771,-0.542235925,-1258,-0.38516815
38:57.9,55352,222,0,-216,-0.0661338,-1270,-0.38884225
38:57.9,55353,245,1,-408,-0.1249194,-1282,-0.39251635
38:57.9,55354,223,0,-2090,-0.63990575,-1263,-0.386699025
38:57.9,55355,246,2,-2040,-0.624597,-1240,-0.379657
38:57.9,55356,224,0,-258,-0.07899315,-1247,-0.381800225
38:57.9,55357,245,2,-544,-0.1665592,-1256,-0.3845558
38:57.9,55358,224,0,-1974,-0.60438945,-1233,-0.377513775
38:57.9,55359,246,2,-2053,-0.628577275,-1208,-0.3698594
38:57.9,55360,226,0,-480,-0.146964,-1211,-0.370777925
38:57.9,55361,245,3,-628,-0.1922779,-1213,-0.371390275
38:57.9,55362,224,0,-1968,-0.6025524,-1186,-0.36312355
38:57.9,55363,246,2,-1877,-0.574690475,-1152,-0.3527136
38:57.9,55364,225,0,-351,-0.107467425,-1141,-0.349345675
38:57.9,55365,246,2,-551,-0.168702425,-1131,-0.346283925
38:58.0,55366,225,0,-2036,-0.6233723,-1093,-0.334649275
38:58.0,55367,245,2,-1828,-0.5596879,-1056,-0.3233208
38:58.0,55368,225,0,-294,-0.09001545,-1051,-0.321789925
38:58.0,55369,246,3,-318,-0.09736365,-1052,-0.3220961
38:58.0,55370,225,0,-1884,-0.5768337,-1027,-0.314441725
38:58.0,55371,246,4,-1684,-0.5155987,-1006,-0.30801205
38:58.0,55372,225,0,165,0.050518875,-1022,-0.31291085
38:58.0,55373,246,5,-30,-0.00918525,-1044,-0.3196467
38:58.0,55374,226,0,-1993,-0.610206775,-1045,-0.319952875
38:58.0,55375,244,4,-2153,-0.659194775,-1051,-0.321789925
38:58.0,55376,225,0,-1176,-0.3600618,-1092,-0.3343431
38:58.1,55377,246,4,-1859,-0.569179325,-1140,-0.3490395
38:58.1,55378,226,0,-3069,-0.939651075,-1158,-0.35455065
38:58.1,55379,245,4,-2612,-0.7997291,-1168,-0.3576124
38:58.1,55380,225,0,-561,-0.171764175,-1202,-0.36802235
38:58.1,55381,246,4,-534,-0.16349745,-1235,-0.378126125
38:58.1,55382,226,0,-1891,-0.578976925,-1235,-0.378126125
38:58.1,55383,246,3,-1685,-0.515904875,-1226,-0.37537055
38:58.1,55384,226,0,-234,-0.07164495,-1238,-0.37904465
38:58.1,55385,246,5,-315,-0.096445125,-1248,-0.3821064
38:58.1,55386,226,0,-1751,-0.536112425,-1223,-0.374452025
38:58.1,55387,247,4,-1705,-0.522028375,-1190,-0.36434825
38:58.1,55388,225,0,3,0.000918525,-1181,-0.361592675
38:58.1,55389,246,5,-166,-0.05082505,-1167,-0.357306225
38:58.1,55390,225,0,-1674,-0.51253695,-1122,-0.34352835
38:58.1,55391,248,5,-1452,-0.4445661,-1080,-0.330669
38:58.1,55392,225,0,249,0.076237575,-1078,-0.33005665
38:58.1,55393,249,6,348,0.1065489,-1101,-0.337098675
38:58.1,55394,226,0,-1077,-0.329750475,-1125,-0.344446875
38:58.1,55395,247,6,-1031,-0.315666425,-1172,-0.3588371
38:58.1,55396,224,0,373,0.114203275,-1546,-0.47334655
38:58.2,55397,247,5,331,0.101343925,-1633,-0.499983775
38:58.2,55398,225,0,-947,-0.289947725,-1552,-0.4751836
38:58.2,55399,245,6,-862,-0.26392285,-1564,-0.4788577
38:58.2,55400,225,0,763,0.233611525,-1561,-0.477939175
38:58.2,55401,249,5,818,0.25045115,-1533,-0.469366275
38:58.2,55402,225,0,-571,-0.174825925,-1419,-0.434462325
38:58.2,55403,248,5,-549,-0.168090075,-1243,-0.380575525
38:58.2,55404,226,0,930,0.28474275,-1220,-0.3735335
38:58.2,55405,247,6,829,0.253819075,-1104,-0.3380172
38:58.2,55406,225,0,-744,-0.2277942,-1008,-0.3086244
38:58.2,55407,249,7,-839,-0.256880825,-1117,-0.341997475
38:58.2,55408,227,0,709,0.217078075,-1133,-0.346896275
38:58.2,55409,248,8,622,0.19044085,-1054,-0.32270845
38:58.2,55410,226,0,-823,-0.251982025,-943,-0.288723025
38:58.2,55411,249,7,-885,-0.270964875,-832,-0.2547376
38:58.2,55412,227,0,588,0.1800309,-764,-0.2339177
38:58.2,55413,249,7,483,0.147882525,-722,-0.22105835
38:58.2,55414,228,0,-795,-0.243409125,-667,-0.204218725
38:58.2,55415,248,8,-830,-0.25412525,-612,-0.1873791
38:58.2,55416,228,0,687,0.210342225,-575,-0.176050625
38:58.3,55417,249,7,765,0.234223875,-526,-0.16104805
38:58.3,55418,226,0,-826,-0.25290055,-431,-0.131961425
38:58.3,55419,250,8,-954,-0.29209095,-325,-0.099506875
38:58.3,55420,227,0,535,0.163803625,-252,-0.0771561
38:58.3,55421,250,8,541,0.165640675,-197,-0.060316475
38:58.3,55422,228,0,-1073,-0.328525775,-130,-0.03980275
38:58.3,55423,249,7,-1146,-0.35087655,-70,-0.02143225
38:58.3,55424,228,0,420,0.1285935,-44,-0.0134717
38:58.3,55425,251,8,190,0.05817325,-26,-0.00796055
38:58.3,55426,228,0,-1278,-0.39129165,11,0.003367925
38:58.3,55427,249,7,-1491,-0.456506925,43,0.013165525
38:58.3,55428,226,0,-158,-0.04837565,36,0.0110223
38:58.3,55429,250,7,-48,-0.0146964,13,0.003980275
38:58.3,55430,226,0,-1654,-0.50641345,7,0.002143225
38:58.3,55431,251,8,-1766,-0.54070505,2,0.00061235
38:58.3,55432,227,0,-148,-0.0453139,-32,-0.0097976
38:58.3,55433,252,8,-117,-0.035822475,-72,-0.0220446
38:58.3,55434,228,0,-1704,-0.5217222,-81,-0.024800175
38:58.3,55435,252,8,-1616,-0.4947788,-83,-0.025412525
38:58.3,55436,227,0,-353,-0.108079775,-109,-0.033373075
38:58.3,55437,252,10,-190,-0.05817325,-134,-0.04102745
38:58.3,55438,226,0,-1684,-0.5155987,-128,-0.0391904
38:58.3,55439,252,9,-1786,-0.54682855,-114,-0.03490395
38:58.3,55440,229,0,-207,-0.063378225,-131,-0.040108925
38:58.4,55441,252,8,-231,-0.070726425,-159,-0.048681825
38:58.4,55442,228,0,-1594,-0.48804295,-172,-0.0526621
38:58.4,55443,253,8,-1829,-0.559994075,-193,-0.059091775
38:58.4,55444,227,0,-254,-0.07776845,-250,-0.07654375
38:58.4,55445,253,10,-250,-0.07654375,-321,-0.098282175
38:58.4,55446,228,0,-1526,-0.46722305,-368,-0.1126724
38:58.4,55447,251,9,-1650,-0.50518875,-412,-0.1261441
38:58.4,55448,228,0,-337,-0.103180975,-488,-0.1494134
38:58.4,55449,253,10,-185,-0.056642375,-575,-0.176050625
38:58.4,55450,227,0,-1663,-0.509169025,-635,-0.194421125
38:58.4,55451,255,9,-1780,-0.5449915,-687,-0.210342225
38:58.4,55452,226,0,-310,-0.09491425,-759,-0.232386825
38:58.4,55453,255,10,-42,-0.01285935,-827,-0.253206725
38:58.4,55454,226,0,-1897,-0.580813975,-857,-0.262391975
38:58.4,55455,255,9,-1926,-0.58969305,-871,-0.266678425
38:58.4,55456,228,0,-220,-0.0673585,-906,-0.27739455
38:58.4,55457,257,11,-18,-0.00551115,-944,-0.2890292
38:58.4,55458,226,0,-1505,-0.460793375,-951,-0.291172425
38:58.4,55459,257,7,-1782,-0.54560385,-948,-0.2902539
38:58.4,55460,226,0,-325,-0.099506875,-966,-0.29576505
38:58.4,55461,255,10,-167,-0.051131225,-987,-0.302194725
38:58.4,55462,227,0,-1603,-0.490798525,-975,-0.298520625
38:58.4,55463,256,10,-1935,-0.592448625,-954,-0.29209095
38:58.4,55464,226,0,-426,-0.13043055,-959,-0.293621825
38:58.4,55465,258,10,-89,-0.027249575,-974,-0.29821445
38:58.4,55466,225,0,-1641,-0.502433175,-966,-0.29576505
38:58.4,55467,256,10,-1803,-0.552033525,-952,-0.2914786
38:58.4,55468,227,0,-329,-0.100731575,-965,-0.295458875
38:58.4,55469,259,10,-194,-0.05939795,-980,-0.3000515
38:58.5,55470,225,0,-1716,-0.5253963,-966,-0.29576505
38:58.5,55471,258,10,-1825,-0.558769375,-948,-0.2902539
38:58.5,55472,225,0,-330,-0.10103775,-963,-0.294846525
38:58.5,55473,258,10,-134,-0.04102745,-985,-0.301582375
38:58.5,55474,225,0,-1655,-0.506719625,-980,-0.3000515
38:58.5,55475,258,11,-1980,-0.6062265,-966,-0.29576505
38:58.5,55476,224,0,-440,-0.134717,-976,-0.2988268
38:58.5,55477,259,12,-426,-0.13043055,-992,-0.3037256
38:58.5,55478,225,0,-1857,-0.568566975,-979,-0.299745325
38:58.5,55479,258,11,-2214,-0.67787145,-957,-0.293009475
38:58.5,55480,225,0,-791,-0.242184425,-967,-0.296071225
38:58.5,55481,259,10,-409,-0.125225575,-988,-0.3025009
38:58.5,55482,225,0,-1884,-0.5768337,-980,-0.3000515
38:58.5,55483,259,11,-2070,-0.63378225,-960,-0.293928
38:58.5,55484,225,0,-723,-0.221364525,-970,-0.29698975
38:58.5,55485,260,11,-479,-0.146657825,-991,-0.303419425
38:58.5,55486,224,0,-1829,-0.559994075,-988,-0.3025009
38:58.5,55487,260,11,-2246,-0.68766905,-977,-0.299132975
38:58.5,55488,223,0,-829,-0.253819075,-991,-0.303419425
38:58.5,55489,260,12,-418,-0.12798115,-1012,-0.3098491
38:58.5,55490,224,0,-1966,-0.60194005,-1006,-0.30801205
38:58.5,55491,261,11,-2344,-0.7176742,-992,-0.3037256
38:58.5,55492,223,0,-843,-0.258105525,-1005,-0.307705875
38:58.5,55493,260,12,-449,-0.137472575,-1030,-0.31536025
38:58.6,55494,223,0,-1869,-0.572241075,-1030,-0.31536025
38:58.6,55495,261,10,-2165,-0.662868875,-1025,-0.313829375
38:58.6,55496,222,0,-783,-0.239735025,-1051,-0.321789925
38:58.6,55497,260,13,-500,-0.1530875,-1093,-0.334649275
38:58.6,55498,223,0,-2027,-0.620616725,-1112,-0.3404666
38:58.6,55499,261,11,-2372,-0.7262471,-1124,-0.3441407
38:58.6,55500,224,0,-825,-0.252594375,-1164,-0.3563877
38:58.6,55501,261,13,-452,-0.1383911,-1215,-0.372002625
38:58.6,55502,221,0,-1961,-0.600409175,-1235,-0.378126125
38:58.6,55503,262,12,-2444,-0.7482917,-1240,-0.379657
38:58.6,55504,222,0,-860,-0.2633105,-1267,-0.387923725
38:58.6,55505,261,10,-338,-0.10348715,-1302,-0.39863985
38:58.6,55506,222,0,-2034,-0.62275995,-1307,-0.400170725
38:58.6,55507,262,12,-2411,-0.738187925,-1301,-0.398333675
38:58.6,55508,224,0,-807,-0.247083225,-1320,-0.404151
38:58.6,55509,261,14,-474,-0.14512695,-1349,-0.413030075
38:58.7,55510,223,0,-1981,-0.606532675,-1349,-0.413030075
38:58.7,55511,261,13,-2285,-0.699609875,-1336,-0.4090498
38:58.7,55512,222,0,-731,-0.223813925,-1345,-0.411805375
38:58.7,55513,262,14,-374,-0.11450945,-1364,-0.4176227
38:58.7,55514,221,0,-1853,-0.567342275,-1360,-0.416398
38:58.7,55515,262,13,-2166,-0.66317505,-1348,-0.4127239
38:58.7,55516,222,0,-799,-0.244633825,-1364,-0.4176227
38:58.7,55517,261,14,-358,-0.10961065,-1390,-0.42558325
38:58.7,55518,221,0,-1596,-0.4886553,-1388,-0.4249709
38:58.7,55519,261,12,-2208,-0.6760344,-1372,-0.4200721
38:58.7,55520,221,0,-691,-0.211566925,-1382,-0.42313385
38:58.7,55521,262,14,-155,-0.047457125,-1404,-0.4298697
38:58.7,55522,221,0,-1800,-0.551115,-1400,-0.428645
38:58.7,55523,261,14,-2237,-0.684913475,-1386,-0.42435855
38:58.7,55524,221,0,-533,-0.163191275,-1400,-0.428645
38:58.7,55525,261,14,-99,-0.030311325,-1425,-0.436299375
38:58.7,55526,220,0,-1630,-0.49906525,-1421,-0.435074675
38:58.7,55527,261,14,-2097,-0.642048975,-1404,-0.4298697
38:58.7,55528,221,0,-408,-0.1249194,-1413,-0.432625275
38:58.8,55529,261,15,-89,-0.027249575,-1430,-0.43783025
38:58.8,55530,220,0,-1600,-0.48988,-1417,-0.433849975
38:58.8,55531,261,13,-2132,-0.6527651,-1386,-0.42435855
38:58.8,55532,219,0,-702,-0.21493485,-1378,-0.42190915
38:58.8,55533,261,14,-255,-0.078074625,-1385,-0.424052375
38:58.8,55534,220,0,-1721,-0.526927175,-1366,-0.41823505
38:58.8,55535,261,14,-2055,-0.629189625,-1331,-0.407518925
38:58.8,55536,220,0,-787,-0.240959725,-1322,-0.40476335
38:58.8,55537,259,15,-342,-0.10471185,-1326,-0.40598805
38:58.8,55538,220,0,-1655,-0.506719625,-1300,-0.3980275
38:58.8,55539,260,15,-2112,-0.6466416,-1262,-0.38639285
38:58.8,55540,221,0,-658,-0.20146315,-1252,-0.3833311
38:58.8,55541,257,17,-397,-0.121551475,-1255,-0.384249625
38:58.8,55542,221,0,-1619,-0.495697325,-1231,-0.376901425
38:58.8,55543,260,15,-2025,-0.620004375,-1196,-0.3661853
38:58.8,55544,220,0,-613,-0.187685275,-1188,-0.3637359
38:58.8,55545,257,14,-80,-0.024494,-1192,-0.3649606
38:58.8,55546,220,0,-1335,-0.408743625,-1170,-0.35822475
38:58.8,55547,259,15,-1813,-0.555095275,-1134,-0.34720245
38:58.9,55548,219,0,-325,-0.099506875,-1126,-0.34475305
38:58.9,55549,259,16,361,0.110529175,-1135,-0.347508625
38:58.9,55550,220,0,-915,-0.280150125,-1122,-0.34352835
38:58.9,55551,259,17,-2003,-0.613268525,-1099,-0.336486325
38:58.9,55552,220,0,-1008,-0.3086244,-1106,-0.33862955
38:58.9,55553,258,16,-1010,-0.30923675,-1135,-0.347508625
38:58.9,55554,217,0,-2583,-0.790850025,-1141,-0.349345675
38:58.9,55555,258,16,-2691,-0.823916925,-1133,-0.346896275
38:58.9,55556,220,0,-848,-0.2596364,-1150,-0.35210125
38:58.9,55557,258,17,-126,-0.03857805,-1181,-0.361592675
38:58.9,55558,217,0,-1265,-0.387311375,-1189,-0.364042075
38:58.9,55559,258,16,-1880,-0.575609,-1181,-0.361592675
38:58.9,55560,219,0,-481,-0.147270175,-1193,-0.365266775
38:58.9,55561,257,17,61,0.018676675,-1214,-0.37169645
38:58.9,55562,218,0,-1175,-0.359755625,-1203,-0.368328525
38:58.9,55563,257,17,-1751,-0.536112425,-1171,-0.358530925
38:58.9,55564,219,0,-414,-0.12675645,-1153,-0.353019775
38:59.0,55565,258,17,202,0.06184735,-1140,-0.3490395
38:59.0,55566,216,0,-1280,-0.391904,-1092,-0.3343431
38:59.0,55567,258,17,-1905,-0.583263375,-1025,-0.313829375
38:59.0,55568,218,0,-471,-0.144208425,-988,-0.3025009
38:59.0,55569,257,19,144,0.0440892,-982,-0.30066385
38:59.0,55570,219,0,-1111,-0.340160425,-978,-0.29943915
38:59.0,55571,256,18,-1791,-0.548359425,-987,-0.302194725
38:59.0,55572,217,0,-241,-0.073788175,-1038,-0.31780965
38:59.0,55573,256,19,336,0.1028748,-1197,-0.366491475
38:59.0,55574,218,0,-1044,-0.3196467,-1213,-0.371390275
38:59.0,55575,257,17,-1689,-0.517129575,-1228,-0.3759829
38:59.0,55576,218,0,-162,-0.04960035,-1278,-0.39129165
38:59.0,55577,256,19,317,0.097057475,-1275,-0.390373125
38:59.0,55578,217,0,-902,-0.27616985,-1292,-0.3955781
38:59.0,55579,256,19,-1542,-0.47212185,-1247,-0.381800225
38:59.0,55580,217,0,-229,-0.070114075,-1167,-0.357306225
38:59.0,55581,255,21,359,0.109916825,-1082,-0.33128135
38:59.0,55582,215,0,-1002,-0.30678735,-953,-0.291784775
38:59.0,55583,256,20,-1581,-0.484062675,-997,-0.305256475
38:59.0,55584,215,0,-116,-0.0355163,-998,-0.30556265
38:59.0,55585,255,20,515,0.157680125,-959,-0.293621825
38:59.1,55586,215,0,-745,-0.228100375,-900,-0.2755575
38:59.1,55587,255,20,-1490,-0.45620075,-831,-0.254431425
38:59.1,55588,217,0,-168,-0.0514374,-796,-0.2437153
38:59.1,55589,254,22,654,0.20023845,-796,-0.2437153
38:59.1,55590,218,0,-599,-0.183398825,-791,-0.242184425
38:59.1,55591,255,21,-1223,-0.374452025,-783,-0.239735025
38:59.1,55592,215,0,352,0.1077736,-795,-0.243409125
38:59.1,55593,255,22,969,0.296683575,-809,-0.247695575
38:59.1,55594,216,0,-456,-0.1396158,-782,-0.23942885
38:59.1,55595,256,22,-1097,-0.335873975,-726,-0.22228305
38:59.1,55596,215,0,300,0.0918525,-691,-0.211566925
38:59.1,55597,254,23,833,0.255043775,-681,-0.208505175
38:59.1,55598,215,0,-501,-0.153393675,-660,-0.2020755
38:59.1,55599,254,21,-1177,-0.360367975,-631,-0.193196425
38:59.1,55600,215,0,122,0.03735335,-627,-0.191971725
38:59.1,55601,256,20,837,0.256268475,-635,-0.194421125
38:59.1,55602,215,0,-488,-0.1494134,-613,-0.187685275
38:59.1,55603,255,21,-1279,-0.391597825,-573,-0.175438275
38:59.2,55604,216,0,-101,-0.030923675,-558,-0.17084565
38:59.2,55605,255,21,449,0.137472575,-565,-0.172988875
38:59.2,55606,216,0,-814,-0.24922645,-549,-0.168090075
38:59.2,55607,255,23,-1651,-0.505494925,-514,-0.15737395
38:59.2,55608,216,0,-201,-0.061541175,-494,-0.15125045
38:59.2,55609,254,23,497,0.152168975,-480,-0.146964
38:59.2,55610,215,0,-1101,-0.337098675,-434,-0.13287995
38:59.2,55611,256,22,-1881,-0.575915175,-370,-0.11328475
38:59.2,55612,216,0,-592,-0.1812556,-330,-0.10103775
38:59.2,55613,254,25,197,0.060316475,-307,-0.093995725
38:59.2,55614,216,0,-1120,-0.342916,-263,-0.080524025
38:59.2,55615,254,24,-1767,-0.541011225,-204,-0.0624597
38:59.2,55616,215,0,-618,-0.18921615,-171,-0.052355925
38:59.2,55617,255,25,78,0.02388165,-164,-0.0502127
38:59.2,55618,215,0,-1192,-0.3649606,-145,-0.044395375
38:59.2,55619,254,24,-1919,-0.587549825,-119,-0.036434825
38:59.3,55620,217,0,-560,-0.171458,-125,-0.038271875
38:59.3,55621,254,25,283,0.086647525,-158,-0.04837565
38:59.3,55622,215,0,-1127,-0.345059225,-174,-0.05327445
38:59.3,55623,255,24,-1838,-0.56274965,-180,-0.0551115
38:59.3,55624,215,0,-647,-0.198095225,-217,-0.066439975
38:59.3,55625,254,24,74,0.02265695,-278,-0.08511665
38:59.3,55626,215,0,-1191,-0.364654425,-322,-0.09858835
38:59.3,55627,255,24,-1989,-0.608982075,-354,-0.10838595
38:59.3,55628,215,0,-552,-0.1690086,-450,-0.13777875
38:59.3,55629,254,25,142,0.04347685,-559,-0.171151825
38:59.3,55630,214,0,-1053,-0.322402275,-539,-0.165028325
38:59.3,55631,255,25,-1868,-0.5719349,-568,-0.1739074
38:59.3,55632,215,0,-521,-0.159517175,-632,-0.1935026
38:59.3,55633,255,24,163,0.049906525,-679,-0.207892825
38:59.3,55634,214,0,-1075,-0.329138125,-724,-0.2216707
38:59.3,55635,256,24,-1763,-0.539786525,-748,-0.2290189
38:59.3,55636,213,0,-453,-0.138697275,-789,-0.241572075
38:59.3,55637,254,24,116,0.0355163,-839,-0.256880825
38:59.3,55638,215,0,-1215,-0.372002625,-852,-0.2608611
38:59.3,55639,255,25,-1957,-0.599184475,-837,-0.256268475
38:59.3,55640,213,0,-467,-0.142983725,-840,-0.257187
38:59.3,55641,256,23,221,0.067664675,-863,-0.264229025
38:59.3,55642,213,0,-1051,-0.321789925,-870,-0.26637225
38:59.4,55643,254,25,-1968,-0.6025524,-861,-0.263616675
38:59.4,55644,213,0,-810,-0.24800175,-870,-0.26637225
38:59.4,55645,254,24,98,0.03000515,-891,-0.272801925
38:59.4,55646,214,0,-1117,-0.341997475,-886,-0.27127105
38:59.4,55647,255,24,-2015,-0.616942625,-861,-0.263616675
38:59.4,55648,214,0,-590,-0.18064325,-860,-0.2633105
38:59.4,55649,255,25,220,0.0673585,-881,-0.269740175
38:59.4,55650,214,0,-1037,-0.317503475,-881,-0.269740175
38:59.4,55651,254,23,-2050,-0.62765875,-861,-0.263616675
38:59.4,55652,212,0,-693,-0.212179275,-856,-0.2620858
38:59.4,55653,253,23,195,0.059704125,-865,-0.264841375
38:59.4,55654,212,0,-1063,-0.325464025,-853,-0.261167275
38:59.4,55655,255,24,-1910,-0.58479425,-828,-0.2535129
38:59.4,55656,213,0,-685,-0.209729875,-827,-0.253206725
38:59.4,55657,254,24,206,0.06307205,-844,-0.2584117
38:59.4,55658,212,0,-1085,-0.332199875,-839,-0.256880825
38:59.4,55659,255,23,-1941,-0.594285675,-815,-0.249532625
38:59.4,55660,211,0,-641,-0.196258175,-817,-0.250144975
38:59.4,55661,252,24,79,0.024187825,-844,-0.2584117
38:59.4,55662,213,0,-1180,-0.3612865,-853,-0.261167275
38:59.4,55663,253,23,-1941,-0.594285675,-847,-0.259330225
38:59.4,55664,213,0,-675,-0.206668125,-863,-0.264229025
38:59.5,55665,253,23,133,0.040721275,-894,-0.27372045
38:59.5,55666,210,0,-1087,-0.332812225,-897,-0.274638975
38:59.5,55667,253,23,-1920,-0.587856,-877,-0.268515475
38:59.5,55668,211,0,-704,-0.2155472,-882,-0.27004635
38:59.5,55669,254,23,211,0.064602925,-908,-0.2780069
38:59.5,55670,212,0,-1120,-0.342916,-912,-0.2792316
38:59.5,55671,252,24,-2130,-0.65215275,-892,-0.2731081
38:59.5,55672,211,0,-604,-0.1849297,-888,-0.2718834
38:59.5,55673,252,21,160,0.048988,-903,-0.276476025
38:59.5,55674,211,0,-1132,-0.3465901,-898,-0.27494515
38:59.5,55675,251,21,-1987,-0.608369725,-875,-0.267903125
38:59.5,55676,212,0,-818,-0.25045115,-872,-0.2669846
38:59.5,55677,252,22,116,0.0355163,-891,-0.272801925
38:59.5,55678,213,0,-1103,-0.337711025,-890,-0.27249575
38:59.5,55679,252,23,-2123,-0.650009525,-870,-0.26637225
38:59.5,55680,212,0,-878,-0.26882165,-871,-0.266678425
38:59.5,55681,251,20,-81,-0.024800175,-894,-0.27372045
38:59.5,55682,213,0,-1150,-0.35210125,-900,-0.2755575
38:59.5,55683,251,21,-2063,-0.631639025,-887,-0.271577225
38:59.5,55684,212,0,-947,-0.289947725,-891,-0.272801925
38:59.5,55685,249,20,162,0.04960035,-912,-0.2792316
38:59.6,55686,213,0,-1083,-0.331587525,-911,-0.278925425
38:59.6,55687,250,19,-1977,-0.605307975,-890,-0.27249575
38:59.6,55688,213,0,-746,-0.22840655,-893,-0.273414275
38:59.6,55689,250,21,176,0.0538868,-916,-0.2804563
38:59.6,55690,213,0,-891,-0.272801925,-916,-0.2804563
38:59.6,55691,250,19,-1827,-0.559381725,-897,-0.274638975
38:59.6,55692,213,0,-762,-0.23330535,-899,-0.275251325
38:59.6,55693,250,19,126,0.03857805,-923,-0.282599525
38:59.6,55694,213,0,-907,-0.277700725,-925,-0.283211875
38:59.6,55695,249,18,-1884,-0.5768337,-908,-0.2780069
38:59.6,55696,213,0,-832,-0.2547376,-914,-0.27984395
38:59.6,55697,249,19,55,0.016839625,-945,-0.289335375
38:59.6,55698,215,0,-909,-0.278313075,-959,-0.293621825
38:59.6,55699,249,20,-1928,-0.5903054,-952,-0.2914786
38:59.7,55700,212,0,-747,-0.228712725,-964,-0.2951527
38:59.7,55701,248,18,361,0.110529175,-999,-0.305868825
38:59.7,55702,214,0,-809,-0.247695575,-1010,-0.30923675
38:59.7,55703,248,19,-1769,-0.541623575,-995,-0.304644125
38:59.7,55704,215,0,-583,-0.178500025,-995,-0.304644125
38:59.7,55705,247,17,488,0.1494134,-1014,-0.31046145
38:59.7,55706,216,0,-604,-0.1849297,-1010,-0.30923675
38:59.7,55707,247,19,-1592,-0.4874306,-979,-0.299745325
38:59.7,55708,215,0,-690,-0.21126075,-962,-0.29454035
38:59.7,55709,247,17,328,0.1004254,-963,-0.294846525
38:59.7,55710,217,0,-736,-0.2253448,-946,-0.28964155
38:59.7,55711,246,18,-1877,-0.574690475,-907,-0.277700725
38:59.7,55712,216,0,-743,-0.227488025,-886,-0.27127105
38:59.7,55713,247,17,129,0.039496575,-890,-0.27249575
38:59.7,55714,216,0,-1024,-0.3135232,-882,-0.27004635
38:59.7,55715,247,18,-1955,-0.598572125,-855,-0.261779625
38:59.7,55716,216,0,-897,-0.274638975,-849,-0.259942575
38:59.7,55717,246,17,103,0.031536025,-868,-0.2657599
38:59.7,55718,216,0,-915,-0.280150125,-869,-0.266066075
38:59.7,55719,245,16,-1780,-0.5449915,-847,-0.259330225
38:59.7,55720,215,0,-831,-0.254431425,-839,-0.256880825
38:59.7,55721,246,16,120,0.036741,-848,-0.2596364
38:59.7,55722,216,0,-924,-0.2829057,-832,-0.2547376
38:59.7,55723,245,17,-1819,-0.556932325,-790,-0.24187825
38:59.7,55724,216,0,-556,-0.1702333,-762,-0.23330535
38:59.7,55725,245,15,516,0.1579863,-756,-0.2314683
38:59.7,55726,217,0,-438,-0.13410465,-735,-0.225038625
38:59.7,55727,246,16,-1436,-0.4396673,-695,-0.212791625
38:59.8,55728,217,0,-136,-0.0416398,-676,-0.2069743
38:59.8,55729,244,17,822,0.25167585,-688,-0.2106484
38:59.8,55730,219,0,-742,-0.22718185,-691,-0.211566925
38:59.8,55731,243,16,-2411,-0.738187925,-681,-0.208505175
38:59.8,55732,219,0,-1682,-0.51498635,-696,-0.2130978
38:59.8,55733,243,16,-893,-0.273414275,-741,-0.226875675
38:59.8,55734,218,0,-1772,-0.5425421,-775,-0.237285625
38:59.8,55735,243,16,-2381,-0.729002675,-788,-0.2412659
38:59.8,55736,218,0,-902,-0.27616985,-812,-0.2486141
38:59.8,55737,244,16,234,0.07164495,-853,-0.261167275
38:59.8,55738,219,0,-743,-0.227488025,-875,-0.267903125
38:59.8,55739,243,17,-1873,-0.573465775,-871,-0.266678425
38:59.8,55740,219,0,-704,-0.2155472,-875,-0.267903125
38:59.8,55741,244,15,325,0.099506875,-891,-0.272801925
38:59.8,55742,220,0,-673,-0.206055775,-877,-0.268515475
38:59.8,55743,244,16,-1673,-0.512230775,-830,-0.25412525
38:59.9,55744,218,0,-731,-0.223813925,-790,-0.24187825
38:59.9,55745,242,15,300,0.0918525,-761,-0.232999175
38:59.9,55746,219,0,-730,-0.22350775,-670,-0.20513725
38:59.9,55747,243,16,-1731,-0.529988925,-568,-0.1739074
38:59.9,55748,221,0,-620,-0.1898285,-616,-0.1886038
38:59.9,55749,243,16,517,0.158292475,-725,-0.221976875
38:59.9,55750,222,0,-654,-0.20023845,-880,-0.269434
38:59.9,55751,242,16,-1718,-0.52600865,-1109,-0.339548075
38:59.9,55752,220,0,-540,-0.1653345,-1468,-0.4494649
38:59.9,55753,242,16,558,0.17084565,-1541,-0.471815675
38:59.9,55754,221,0,-434,-0.13287995,-1285,-0.393434875
38:59.9,55755,243,16,-1817,-0.556319975,-1119,-0.342609825
38:59.9,55756,222,0,-774,-0.23697945,-1122,-0.34352835
38:59.9,55757,243,16,292,0.0894031,-991,-0.303419425
38:59.9,55758,220,0,-581,-0.177887675,-761,-0.232999175
38:59.9,55759,242,16,-1719,-0.526314825,-596,-0.1824803
38:59.9,55760,222,0,-857,-0.262391975,-723,-0.221364525
38:59.9,55761,243,16,292,0.0894031,-824,-0.2522882
38:59.9,55762,223,0,-638,-0.19533965,-753,-0.230549775
38:59.9,55763,243,15,-1601,-0.490186175,-773,-0.236673275
38:59.9,55764,222,0,-671,-0.205443425,-860,-0.2633105
38:59.9,55765,241,14,476,0.1457393,-789,-0.241572075
38:59.9,55766,222,0,-386,-0.11818355,-724,-0.2216707
38:59.9,55767,241,15,-1573,-0.481613275,-659,-0.201769325
38:59.9,55768,223,0,-726,-0.22228305,-632,-0.1935026
38:59.9,55769,242,15,435,0.133186125,-650,-0.19901375
39:00.0,55770,223,0,-334,-0.10226245,-662,-0.20268785
39:00.0,55771,240,16,-1599,-0.489573825,-651,-0.199319925
39:00.0,55772,221,0,-586,-0.17941855,-647,-0.198095225
39:00.0,55773,241,14,592,0.1812556,-656,-0.2008508
39:00.0,55774,224,0,-417,-0.127674975,-643,-0.196870525
39:00.0,55775,241,15,-1555,-0.476102125,-607,-0.185848225
39:00.0,55776,226,0,-601,-0.184011175,-596,-0.1824803
39:00.0,55777,241,15,575,0.176050625,-624,-0.1910532
39:00.0,55778,225,0,-394,-0.12063295,-648,-0.1984014
39:00.0,55779,241,17,-1487,-0.455282225,-647,-0.198095225
39:00.0,55780,224,0,-635,-0.194421125,-656,-0.2008508
39:00.0,55781,240,15,276,0.0845043,-683,-0.209117525
39:00.0,55782,225,0,-576,-0.1763568,-690,-0.21126075
39:00.0,55783,240,15,-1781,-0.545297675,-665,-0.203606375
39:00.0,55784,225,0,-854,-0.26147345,-649,-0.198707575
39:00.0,55785,240,14,227,0.069501725,-658,-0.20146315
39:00.0,55786,227,0,-759,-0.232386825,-655,-0.200544625
39:00.0,55787,240,15,-2032,-0.6221476,-625,-0.191359375
39:00.1,55788,226,0,-1266,-0.38761755,-604,-0.1849297
39:00.1,55789,239,14,-169,-0.051743575,-603,-0.184623525
39:00.1,55790,227,0,-1002,-0.30678735,-586,-0.17941855
39:00.1,55791,239,14,-2219,-0.679402325,-548,-0.1677839
39:00.1,55792,226,0,-1356,-0.4151733,-528,-0.1616604
39:00.1,55793,240,14,-185,-0.056642375,-535,-0.163803625
39:00.1,55794,227,0,-955,-0.292397125,-532,-0.1628851
39:00.1,55795,238,15,-2114,-0.64725395,-506,-0.15492455
39:00.1,55796,227,0,-1346,-0.41211155,-494,-0.15125045
39:00.1,55797,238,13,-165,-0.050518875,-509,-0.155843075
39:00.1,55798,227,0,-1059,-0.324239325,-519,-0.158904825
39:00.1,55799,239,13,-2237,-0.684913475,-511,-0.156455425
39:00.1,55800,227,0,-1263,-0.386699025,-518,-0.15859865
39:00.1,55801,238,14,-133,-0.040721275,-552,-0.1690086
39:00.1,55802,228,0,-956,-0.2927033,-576,-0.1763568
39:00.1,55803,239,13,-2134,-0.65337745,-581,-0.177887675
39:00.2,55804,226,0,-1122,-0.34352835,-610,-0.18676675
39:00.2,55805,239,11,79,0.024187825,-675,-0.206668125
39:00.2,55806,227,0,-908,-0.2780069,-736,-0.2253448
39:00.2,55807,238,13,-2153,-0.659194775,-777,-0.237897975
39:00.2,55808,228,0,-1165,-0.356693875,-875,-0.267903125
39:00.2,55809,237,12,-1,-0.000306175,-992,-0.3037256
39:00.2,55810,229,0,-777,-0.237897975,-961,-0.294234175
39:00.2,55811,237,11,-2001,-0.612656175,-989,-0.302807075
39:00.2,55812,228,0,-1252,-0.3833311,-1027,-0.314441725
39:00.2,55813,237,13,9,0.002755575,-1088,-0.3331184
39:00.2,55814,228,0,-979,-0.299745325,-1130,-0.34597775
39:00.2,55815,237,11,-2257,-0.691036975,-1140,-0.3490395
39:00.2,55816,229,0,-1195,-0.365879125,-1152,-0.3527136
39:00.2,55817,237,11,-31,-0.009491425,-1178,-0.36067415
39:00.2,55818,229,0,-1013,-0.310155275,-1188,-0.3637359
39:00.2,55819,235,11,-2193,-0.671441775,-1169,-0.357918575
39:00.2,55820,230,0,-1527,-0.467529225,-1160,-0.355163
39:00.2,55821,233,13,-133,-0.040721275,-1170,-0.35822475
39:00.2,55822,229,0,-1005,-0.307705875,-1164,-0.3563877
39:00.2,55823,234,11,-2149,-0.657970075,-1133,-0.346896275
39:00.2,55824,230,0,-1193,-0.365266775,-1113,-0.340772775
39:00.2,55825,235,9,24,0.0073482,-1117,-0.341997475
39:00.2,55826,232,0,-1023,-0.313217025,-1108,-0.3392419
39:00.2,55827,234,10,-2193,-0.671441775,-1074,-0.32883195
39:00.2,55828,229,0,-1482,-0.45375135,-1053,-0.322402275
39:00.2,55829,234,10,-38,-0.01163465,-1060,-0.3245455
39:00.3,55830,229,0,-902,-0.27616985,-1057,-0.323626975
39:00.3,55831,235,10,-2341,-0.716755675,-1032,-0.3159726
39:00.3,55832,232,0,-1450,-0.44395375,-1024,-0.3135232
39:00.3,55833,235,9,-354,-0.10838595,-1044,-0.3196467
39:00.3,55834,231,0,-1206,-0.36924705,-1055,-0.323014625
39:00.3,55835,233,9,-2342,-0.71706185,-1044,-0.3196467
39:00.3,55836,231,0,-1471,-0.450383425,-1049,-0.321177575
39:00.3,55837,233,9,-239,-0.073175825,-1086,-0.33250605
39:00.3,55838,231,0,-1036,-0.3171973,-1114,-0.34107895
39:00.3,55839,233,9,-2367,-0.724716225,-1114,-0.34107895
39:00.3,55840,232,0,-1670,-0.51131225,-1121,-0.343222175
39:00.3,55841,235,8,-375,-0.114815625,-1147,-0.351182725
39:00.4,55842,230,0,-1218,-0.37292115,-1157,-0.354244475
39:00.4,55843,233,9,-2500,-0.7654375,-1141,-0.349345675
39:00.4,55844,232,0,-1717,-0.525702475,-1138,-0.34842715
39:00.4,55845,231,7,-386,-0.11818355,-1163,-0.356081525
39:00.4,55846,233,0,-1158,-0.35455065,-1172,-0.3588371
39:00.4,55847,232,8,-2349,-0.719205075,-1151,-0.352407425
39:00.4,55848,232,0,-1705,-0.522028375,-1140,-0.3490395
39:00.4,55849,232,8,-441,-0.135023175,-1159,-0.354856825
39:00.4,55850,233,0,-1250,-0.38271875,-1173,-0.359143275
39:00.4,55851,232,7,-2504,-0.7666622,-1169,-0.357918575
39:00.4,55852,234,0,-1711,-0.523865425,-1181,-0.361592675
39:00.4,55853,232,8,-362,-0.11083535,-1218,-0.37292115
39:00.4,55854,234,0,-1056,-0.3233208,-1242,-0.38026935
39:00.4,55855,231,6,-2399,-0.734513825,-1239,-0.379350825
39:00.4,55856,235,0,-1678,-0.51376165,-1247,-0.381800225
39:00.4,55857,231,7,-213,-0.065215275,-1285,-0.393434875
39:00.4,55858,236,0,-913,-0.279537775,-1315,-0.402620125
39:00.4,55859,232,6,-2346,-0.71828655,-1316,-0.4029263
39:00.4,55860,236,0,-1410,-0.43170675,-1325,-0.405681875
39:00.4,55861,232,7,-112,-0.0342916,-1356,-0.4151733
39:00.4,55862,234,0,-857,-0.262391975,-1374,-0.42068445
39:00.4,55863,233,6,-2284,-0.6993037,-1366,-0.41823505
39:00.4,55864,236,0,-1657,-0.507331975,-1370,-0.41945975
39:00.4,55865,231,6,-256,-0.0783808,-1402,-0.42925735
39:00.4,55866,237,0,-861,-0.263616675,-1423,-0.435687025
39:00.4,55867,232,6,-2167,-0.663481225,-1415,-0.433237625
39:00.4,55868,237,0,-1467,-0.449158725,-1414,-0.43293145
39:00.4,55869,232,6,-160,-0.048988,-1437,-0.439973475
39:00.4,55870,239,0,-844,-0.2584117,-1450,-0.44395375
39:00.5,55871,231,6,-2038,-0.62398465,-1434,-0.43905495
39:00.5,55872,236,0,-1276,-0.3906793,-1426,-0.43660555
39:00.5,55873,232,5,139,0.042558325,-1442,-0.44150435
39:00.5,55874,237,0,-566,-0.17329505,-1442,-0.44150435
39:00.5,55875,230,4,-1973,-0.604083275,-1410,-0.43170675
39:00.5,55876,237,0,-1250,-0.38271875,-1384,-0.4237462
39:00.5,55877,232,5,47,0.014390225,-1381,-0.422827675
39:00.5,55878,239,0,-722,-0.22105835,-1367,-0.418541225
39:00.5,55879,232,5,-2088,-0.6392934,-1326,-0.40598805
39:00.5,55880,238,0,-1334,-0.40843745,-1297,-0.397108975
39:00.5,55881,232,5,-106,-0.03245455,-1298,-0.39741515
39:00.5,55882,241,0,-790,-0.24187825,-1290,-0.39496575
39:00.5,55883,232,3,-2204,-0.6748097,-1253,-0.383637275
39:00.5,55884,239,0,-1530,-0.46844775,-1224,-0.3747582
39:00.5,55885,232,6,-293,-0.089709275,-1227,-0.375676725
39:00.5,55886,240,0,-844,-0.2584117,-1227,-0.375676725
39:00.5,55887,232,3,-2101,-0.643273675,-1204,-0.3686347
39:00.5,55888,241,0,-1308,-0.4004769,-1189,-0.364042075
39:00.5,55889,232,3,-19,-0.005817325,-1197,-0.366491475
39:00.5,55890,241,0,-878,-0.26882165,-1190,-0.36434825
39:00.5,55891,234,3,-1955,-0.598572125,-1148,-0.3514889
39:00.5,55892,242,0,-1318,-0.40353865,-1110,-0.33985425
39:00.6,55893,233,3,-140,-0.0428645,-1098,-0.33618015
39:00.6,55894,243,0,-791,-0.242184425,-1081,-0.330975175
39:00.6,55895,234,3,-1937,-0.593060975,-1040,-0.318422
39:00.6,55896,243,0,-1209,-0.370165575,-1012,-0.3098491
39:00.6,55897,233,3,258,0.07899315,-1011,-0.309542925
39:00.6,55898,243,0,-475,-0.145433125,-1007,-0.308318225
39:00.6,55899,233,3,-1737,-0.531825975,-983,-0.300970025
39:00.6,55900,246,0,-899,-0.275251325,-980,-0.3000515
39:00.6,55901,235,2,165,0.050518875,-1014,-0.31046145
39:00.6,55902,244,0,-937,-0.286885975,-1047,-0.320565225
39:00.6,55903,235,2,-2818,-0.86280115,-1056,-0.3233208
39:00.6,55904,245,0,-2696,-0.8254478,-1069,-0.327301075
39:00.6,55905,236,1,-1196,-0.3661853,-1104,-0.3380172
39:00.6,55906,244,0,-1147,-0.351182725,-1128,-0.3453654
39:00.6,55907,235,0,-2052,-0.6282711,-1122,-0.34352835
39:00.6,55908,247,0,-1328,-0.4066004,-1120,-0.342916
39:00.6,55909,233,2,-20,-0.0061235,-1138,-0.34842715
39:00.6,55910,247,0,-563,-0.172376525,-1142,-0.34965185
39:00.6,55911,235,1,-1946,-0.59581655,-1116,-0.3416913
39:00.6,55912,248,0,-1325,-0.405681875,-1092,-0.3343431
39:00.6,55913,236,0,61,0.018676675,-1089,-0.333424575
39:00.6,55914,247,0,-463,-0.141759025,-1074,-0.32883195
39:00.7,55915,236,0,-1899,-0.581426325,-1032,-0.3159726
39:00.7,55916,249,0,-1241,-0.379963175,-996,-0.3049503
39:00.7,55917,236,0,158,0.04837565,-982,-0.30066385
39:00.7,55918,249,0,-451,-0.138084925,-956,-0.2927033
39:00.7,55919,237,1,-1755,-0.537337125,-917,-0.280762475
39:00.7,55920,249,0,-1156,-0.3539383,-912,-0.2792316
39:00.7,55921,236,0,224,0.0685832,-1135,-0.347508625
39:00.7,55922,248,0,-249,-0.076237575,-1410,-0.43170675
39:00.8,55923,236,0,-1752,-0.5364186,-1476,-0.4519143
39:00.8,55924,249,0,-1166,-0.35700005,-1613,-0.493860275
39:00.8,55925,237,0,125,0.038271875,-1639,-0.501820825
39:00.8,55926,249,0,-457,-0.139921975,-1399,-0.428338825
39:00.8,55927,236,0,-1607,-0.492023225,-1187,-0.363429725
39:00.8,55928,249,0,-1054,-0.32270845,-1166,-0.35700005
39:00.8,55929,238,0,342,0.10471185,-1133,-0.346896275
39:00.8,55930,250,0,-236,-0.0722573,-932,-0.2853551
39:00.8,55931,236,0,-1707,-0.522640725,-747,-0.228712725
39:00.8,55932,250,0,-1060,-0.3245455,-929,-0.284436575
39:00.8,55933,237,0,373,0.114203275,-1101,-0.337098675
39:00.8,55934,250,0,-124,-0.0379657,-1016,-0.3110738
39:00.8,55935,237,0,-1447,-0.443035225,-930,-0.28474275
39:00.8,55936,252,0,-991,-0.303419425,-956,-0.2927033
39:00.8,55937,236,0,552,0.1690086,-913,-0.279537775
39:00.8,55938,251,0,3,0.000918525,-868,-0.2657599
39:00.8,55939,237,0,-1474,-0.45130195,-814,-0.24922645
39:00.8,55940,251,0,-769,-0.235448575,-788,-0.2412659
39:00.8,55941,236,0,712,0.2179966,-808,-0.2473894
39:00.9,55942,251,0,241,0.073788175,-831,-0.254431425
39:00.9,55943,238,0,-1205,-0.368940875,-820,-0.2510635
39:00.9,55944,250,0,-741,-0.226875675,-799,-0.244633825
39:00.9,55945,237,0,705,0.215853375,-790,-0.24187825
39:00.9,55946,252,0,256,0.0783808,-771,-0.236060925
39:00.9,55947,237,0,-1261,-0.386086675,-730,-0.22350775
39:00.9,55948,251,0,-872,-0.2669846,-708,-0.2167719
39:00.9,55949,236,0,651,0.199319925,-724,-0.2216707
39:00.9,55950,250,0,242,0.07409435,-736,-0.2253448
39:00.9,55951,237,0,-1276,-0.3906793,-714,-0.21860895
39:00.9,55952,250,0,-870,-0.26637225,-687,-0.210342225
39:00.9,55953,236,0,414,0.12675645,-679,-0.207892825
39:00.9,55954,250,0,-69,-0.021126075,-660,-0.2020755
39:00.9,55955,235,0,-1479,-0.452832825,-615,-0.188297625
39:00.9,55956,251,0,-1120,-0.342916,-579,-0.177275325
39:00.9,55957,235,0,182,0.05572385,-573,-0.175438275
39:00.9,55958,253,0,-404,-0.1236947,-558,-0.17084565
39:00.9,55959,237,0,-1887,-0.577752225,-508,-0.1555369
39:00.9,55960,251,0,-1407,-0.430788225,-461,-0.141146675
39:00.9,55961,236,0,135,0.041333625,-444,-0.1359417
39:00.9,55962,253,0,-390,-0.11940825,-425,-0.130124375
39:00.9,55963,238,0,-1893,-0.579589275,-378,-0.11573415
39:00.9,55964,252,0,-1496,-0.4580378,-338,-0.10348715
39:01.0,55965,235,0,-146,-0.04470155,-330,-0.10103775
39:01.0,55966,254,0,-532,-0.1628851,-321,-0.098282175
39:01.0,55967,235,0,-1924,-0.5890807,-288,-0.0881784
39:01.0,55968,252,0,-1519,-0.465079825,-266,-0.08144255
39:01.0,55969,238,0,-122,-0.03735335,-284,-0.0869537
39:01.0,55970,254,0,-548,-0.1677839,-307,-0.093995725
39:01.0,55971,235,0,-1931,-0.591223925,-308,-0.0943019
39:01.0,55972,254,0,-1475,-0.451608125,-314,-0.09613895
39:01.0,55973,235,0,-128,-0.0391904,-352,-0.1077736
39:01.0,55974,254,0,-503,-0.154006025,-394,-0.12063295
39:01.0,55975,236,0,-2031,-0.621841425,-420,-0.1285935
39:01.0,55976,254,0,-1520,-0.465386,-457,-0.139921975
39:01.0,55977,237,0,118,0.03612865,-631,-0.193196425
39:01.0,55978,256,0,-404,-0.1236947,-621,-0.190134675
39:01.0,55979,236,0,-1903,-0.582651025,-639,-0.195645825
39:01.0,55980,255,0,-1541,-0.471815675,-697,-0.213403975
39:01.0,55981,236,0,9,0.002755575,-797,-0.244021475
39:01.0,55982,255,0,-428,-0.1310429,-799,-0.244633825
39:01.1,55983,236,0,-1898,-0.58112015,-829,-0.253819075
39:01.1,55984,255,0,-1584,-0.4849812,-861,-0.263616675
39:01.1,55985,237,0,52,0.0159211,-916,-0.2804563
39:01.1,55986,255,0,-302,-0.09246485,-961,-0.294234175
39:01.1,55987,237,0,-1761,-0.539174175,-969,-0.296683575
39:01.1,55988,256,0,-1401,-0.428951175,-972,-0.2976021
39:01.1,55989,235,0,-2,-0.00061235,-998,-0.30556265
39:01.1,55990,256,0,-349,-0.106855075,-1019,-0.311992325
39:01.1,55991,236,0,-1766,-0.54070505,-1011,-0.309542925
39:01.1,55992,257,0,-1686,-0.51621105,-1005,-0.307705875
39:01.1,55993,235,0,-72,-0.0220446,-1025,-0.313829375
39:01.1,55994,258,0,-349,-0.106855075,-1038,-0.31780965
39:01.1,55995,237,0,-1933,-0.591836275,-1020,-0.3122985
39:01.1,55996,257,0,-1562,-0.47824535,-1004,-0.3073997
39:01.1,55997,237,0,23,0.007042025,-1012,-0.3098491
39:01.1,55998,257,0,-435,-0.133186125,-1015,-0.310767625
39:01.1,55999,238,0,-1761,-0.539174175,-987,-0.302194725
39:01.1,56000,257,0,-1408,-0.4310944,-966,-0.29576505
39:01.1,56001,237,0,31,0.009491425,-976,-0.2988268
39:01.1,56002,256,0,-359,-0.109916825,-985,-0.301582375
39:01.1,56003,238,0,-1844,-0.5645867,-963,-0.294846525
39:01.1,56004,258,0,-1531,-0.468753925,-942,-0.28841685
39:01.1,56005,237,0,8,0.0024494,-949,-0.290560075
39:01.1,56006,258,0,-157,-0.048069475,-955,-0.292397125
39:01.1,56007,235,0,-1807,-0.553258225,-930,-0.28474275
39:01.1,56008,257,0,-1567,-0.479776225,-906,-0.27739455
39:01.2,56009,237,0,7,0.002143225,-917,-0.280762475
39:01.2,56010,256,0,-223,-0.068277025,-932,-0.2853551
39:01.2,56011,236,0,-1879,-0.575302825,-919,-0.281374825
39:01.2,56012,258,0,-1699,-0.520191325,-910,-0.27861925
39:01.2,56013,237,0,-181,-0.055417675,-930,-0.28474275
39:01.2,56014,258,0,-412,-0.1261441,-949,-0.290560075
39:01.2,56015,237,0,-1993,-0.610206775,-939,-0.287498325
39:01.2,56016,258,0,-1700,-0.5204975,-929,-0.284436575
39:01.2,56017,237,0,-188,-0.0575609,-944,-0.2890292
39:01.2,56018,258,0,-578,-0.17696915,-958,-0.29331565
39:01.2,56019,236,0,-1912,-0.5854066,-945,-0.289335375
39:01.2,56020,258,0,-1647,-0.504270225,-932,-0.2853551
39:01.2,56021,237,0,-269,-0.082361075,-944,-0.2890292
39:01.2,56022,259,0,-534,-0.16349745,-953,-0.291784775
39:01.2,56023,236,0,-2012,-0.6160241,-928,-0.2841304
39:01.2,56024,260,0,-1638,-0.50151465,-902,-0.27616985
39:01.2,56025,237,0,-229,-0.070114075,-907,-0.277700725
39:01.3,56026,259,0,-356,-0.1089983,-914,-0.27984395
39:01.3,56027,238,0,-1886,-0.57744605,-894,-0.27372045
39:01.3,56028,260,0,-1715,-0.525090125,-880,-0.269434
39:01.3,56029,237,0,-221,-0.067664675,-901,-0.275863675
39:01.3,56030,258,1,-521,-0.159517175,-925,-0.283211875
39:01.3,56031,237,0,-2013,-0.616330275,-922,-0.28229335
39:01.3,56032,259,1,-1751,-0.536112425,-921,-0.281987175
39:01.3,56033,238,0,-267,-0.081748725,-951,-0.291172425
39:01.3,56034,259,2,-456,-0.1396158,-985,-0.301582375
39:01.3,56035,237,0,-2034,-0.62275995,-992,-0.3037256
39:01.3,56036,260,2,-1810,-0.55417675,-997,-0.305256475
39:01.3,56037,238,0,-189,-0.057867075,-1028,-0.3147479
39:01.3,56038,259,0,-453,-0.138697275,-1061,-0.324851675
