Time, Sample Count, IR Count, Red Count, Raw ECG, Raw ECG (mV), Filtered ECG, Filtered ECG (mV)
2023-10-26 13:33:37.129,16927,233428,197190,6433,1.969623775,3308,1.0128269
2023-10-26 13:33:37.159,16928,233444,197181,5053,1.547102275,3215,0.984352625
2023-10-26 13:33:37.159,16929,233411,197188,116,0.0355163,3211,0.983127925
2023-10-26 13:33:37.159,16930,233417,197172,1242,0.38026935,3187,0.975779725
2023-10-26 13:33:37.159,16931,233401,197190,5889,1.803064575,3059,0.936589325
2023-10-26 13:33:37.179,16932,233401,197162,5025,1.538529375,2944,0.9013792
2023-10-26 13:33:37.179,16933,233400,197175,-9,-0.002755575,2928,0.8964804
2023-10-26 13:33:37.179,16934,233397,197166,864,0.2645352,2903,0.888826025
2023-10-26 13:33:37.179,16935,233398,197167,5616,1.7194788,2789,0.853922075
2023-10-26 13:33:37.179,16936,233361,197154,4367,1.337066225,2718,0.83218365
2023-10-26 13:33:37.209,16937,233381,197153,-564,-0.1726827,2790,0.85422825
2023-10-26 13:33:37.209,16938,233383,197134,679,0.207892825,2892,0.8854581
2023-10-26 13:33:37.209,16939,233344,197123,5437,1.664673475,2927,0.896174225
2023-10-26 13:33:37.209,16940,233317,197103,4767,1.459536225,2994,0.91668795
2023-10-26 13:33:37.239,16941,233328,197110,-478,-0.14635165,3168,0.9699624
2023-10-26 13:33:37.239,16942,233318,197098,503,0.154006025,3328,1.0189504
2023-10-26 13:33:37.239,16943,233325,197078,5707,1.747340725,3375,1.033340625
2023-10-26 13:33:37.239,16944,233293,197073,4999,1.530568825,3408,1.0434444
2023-10-26 13:33:37.269,16945,233273,197081,-1,-0.000306175,3503,1.072531025
2023-10-26 13:33:37.269,16946,233260,197043,1051,0.321789925,3554,1.08814595
2023-10-26 13:33:37.269,16947,233238,197037,6125,1.875321875,3469,1.062121075
2023-10-26 13:33:37.269,16948,233231,197043,5580,1.7084565,3364,1.0299727
2023-10-26 13:33:37.269,16949,233212,197032,171,0.052355925,3352,1.0262986
2023-10-26 13:33:37.269,16950,233259,197039,1010,0.30923675,3339,1.022318325
2023-10-26 13:33:37.299,16951,233238,197036,6139,1.879608325,3234,0.99016995
2023-10-26 13:33:37.299,16952,233250,197041,5857,1.793266975,3134,0.95955245
2023-10-26 13:33:37.299,16953,233234,197053,486,0.14880105,3127,0.957409225
2023-10-26 13:33:37.299,16954,233240,197042,1329,0.406906575,3104,0.9503672
2023-10-26 13:33:37.299,16955,233234,197046,6358,1.94666065,2973,0.910258275
2023-10-26 13:33:37.299,16956,233236,197057,6007,1.839193225,2843,0.870455525
2023-10-26 13:33:37.299,16957,233238,197042,884,0.2706587,2819,0.863107325
2023-10-26 13:33:37.329,16958,233259,197047,1654,0.50641345,2807,0.859433225
2023-10-26 13:33:37.329,16959,233252,197026,6532,1.9999351,2715,0.831265125
2023-10-26 13:33:37.329,16960,233238,197022,5764,1.7647927,2637,0.807383475
2023-10-26 13:33:37.329,16961,233242,197036,500,0.1530875,2663,0.815344025
2023-10-26 13:33:37.329,16962,233231,197026,1529,0.468141575,2696,0.8254478
2023-10-26 13:33:37.329,16963,233215,197044,6418,1.96503115,2647,0.810445225
2023-10-26 13:33:37.329,16964,233217,197026,5960,1.824803,2620,0.8021785
2023-10-26 13:33:37.329,16965,233203,197016,444,0.1359417,2714,0.83095895
2023-10-26 13:33:37.329,16966,233218,197012,904,0.2767822,2823,0.864332025
2023-10-26 13:33:37.369,16967,233185,197011,6180,1.8921615,2844,0.8707617
2023-10-26 13:33:37.369,16968,233178,197024,5556,1.7011083,2868,0.8781099
2023-10-26 13:33:37.369,16969,233176,197009,205,0.062765875,2996,0.9173003
2023-10-26 13:33:37.369,16970,233174,197002,712,0.2179966,3125,0.956796875
2023-10-26 13:33:37.369,16971,233144,197004,6027,1.845316725,3150,0.96445125
2023-10-26 13:33:37.369,16972,233150,196978,5631,1.724071425,3164,0.9687377
2023-10-26 13:33:37.369,16973,233153,196993,418,0.12798115,3274,1.00241695
2023-10-26 13:33:37.369,16974,233165,196977,686,0.21003605,3391,1.038239425
2023-10-26 13:33:37.399,16975,233154,196990,5720,1.751321,3411,1.044362925
2023-10-26 13:33:37.399,16976,233171,196974,5626,1.72254055,3419,1.046812325
2023-10-26 13:33:37.399,16977,233154,196983,228,0.0698079,4254,1.30246845
2023-10-26 13:33:37.399,16978,233137,196977,603,0.184623525,4202,1.28654735
2023-10-26 13:33:37.399,16979,233155,196974,6009,1.839805575,4098,1.25470515
2023-10-26 13:33:37.399,16980,233158,196969,6021,1.843479675,4038,1.23633465
2023-10-26 13:33:37.399,16981,233135,196958,676,0.2069743,4027,1.232966725
2023-10-26 13:33:37.429,16982,233138,196977,796,0.2437153,3964,1.2136777
2023-10-26 13:33:37.429,16983,233147,196968,5505,1.685493375,3841,1.176018175
2023-10-26 13:33:37.429,16984,233162,196978,5843,1.788980525,3756,1.1499933
2023-10-26 13:33:37.429,16985,233136,196975,539,0.165028325,3720,1.138971
2023-10-26 13:33:37.429,16986,233117,196970,689,0.210954575,3634,1.11263995
2023-10-26 13:33:37.429,16987,233132,196968,5779,1.769385325,3488,1.0679384
2023-10-26 13:33:37.429,16988,233134,196951,5741,1.757750675,3383,1.035790025
2023-10-26 13:33:37.429,16989,233113,196957,411,0.125837925,3382,1.03548385
2023-10-26 13:33:37.459,16990,233132,196936,911,0.278925425,3392,1.0385456
2023-10-26 13:33:37.459,16991,233110,196964,5799,1.775508825,3301,1.010683675
2023-10-26 13:33:37.459,16992,233122,196953,5778,1.76907915,3201,0.980066175
2023-10-26 13:33:37.459,16993,233104,196953,542,0.16594685,3209,0.982515575
2023-10-26 13:33:37.459,16994,233092,196939,686,0.21003605,3235,0.990476125
2023-10-26 13:33:37.459,16995,233111,196945,5720,1.751321,3168,0.9699624
2023-10-26 13:33:37.459,16996,233104,196918,6052,1.8529711,3097,0.948223975
2023-10-26 13:33:37.489,16997,233091,196908,438,0.13410465,3138,0.96077715
2023-10-26 13:33:37.489,16998,233101,196914,137,0.041945975,3202,0.98037235
2023-10-26 13:33:37.489,16999,233070,196911,5623,1.721622025,3169,0.970268575
2023-10-26 13:33:37.489,17000,233085,196909,5841,1.788368175,3120,0.955266
2023-10-26 13:33:37.489,17001,233077,196913,446,0.13655405,3170,0.97057475
2023-10-26 13:33:37.519,17002,233069,196926,174,0.05327445,3240,0.992007
2023-10-26 13:33:37.519,17003,233085,196918,5284,1.6178287,3214,0.98404645
2023-10-26 13:33:37.519,17004,233113,196915,5753,1.761424775,3168,0.9699624
2023-10-26 13:33:37.519,17005,233107,196927,209,0.063990575,3214,0.98404645
2023-10-26 13:33:37.519,17006,233124,196930,-165,-0.050518875,3271,1.001498425
2023-10-26 13:33:37.519,17007,233124,196956,5040,1.543122,3229,0.988639075
2023-10-26 13:33:37.519,17008,233135,196946,5578,1.70784415,3171,0.970880925
2023-10-26 13:33:37.549,17009,233145,196964,-9,-0.002755575,3207,0.981903225
2023-10-26 13:33:37.549,17010,233177,196956,-274,-0.08389195,3263,0.999049025
2023-10-26 13:33:37.549,17011,233160,196972,4852,1.4855611,3227,0.988026725
2023-10-26 13:33:37.549,17012,233164,196968,5399,1.653038825,3172,0.9711871
2023-10-26 13:33:37.549,17013,233159,196962,186,0.05694855,3210,0.98282175
2023-10-26 13:33:37.549,17014,233149,196962,-476,-0.1457393,3259,0.997824325
2023-10-26 13:33:37.549,17015,233160,196938,4459,1.365234325,3206,0.98159705
2023-10-26 13:33:37.579,17016,233147,196943,5433,1.663448775,3138,0.96077715
2023-10-26 13:33:37.579,17017,233158,196919,175,0.053580625,3172,0.9711871
2023-10-26 13:33:37.579,17018,233127,196932,-672,-0.2057496,3222,0.98649585
2023-10-26 13:33:37.579,17019,233114,196914,4381,1.341352675,3164,0.9687377
2023-10-26 13:33:37.579,17020,233126,196914,5181,1.586292675,3079,0.942712825
2023-10-26 13:33:37.579,17021,233091,196904,-109,-0.033373075,3087,0.945162225
2023-10-26 13:33:37.579,17022,233132,196906,-741,-0.226875675,3110,0.95220425
2023-10-26 13:33:37.579,17023,233109,196902,4565,1.397688875,3027,0.926791725
2023-10-26 13:33:37.579,17024,233115,196910,5425,1.660999375,2919,0.893724825
2023-10-26 13:33:37.619,17025,233105,196903,-82,-0.02510635,2912,0.8915816
2023-10-26 13:33:37.619,17026,233094,196879,-538,-0.16472215,2932,0.8977051
2023-10-26 13:33:37.619,17027,233068,196860,4557,1.395239475,2851,0.872904925
2023-10-26 13:33:37.619,17028,233075,196870,5555,1.700802125,2741,0.839225675
2023-10-26 13:33:37.619,17029,233072,196856,141,0.043170675,2728,0.8352454
2023-10-26 13:33:37.619,17030,233081,196858,-814,-0.24922645,2745,0.840450375
2023-10-26 13:33:37.619,17031,233079,196856,4552,1.3937086,2668,0.8168749
2023-10-26 13:33:37.649,17032,233064,196845,5808,1.7782644,2561,0.784114175
2023-10-26 13:33:37.649,17033,233069,196854,423,0.129512025,2555,0.782277125
2023-10-26 13:33:37.649,17034,233074,196826,-617,-0.188909975,2584,0.7911562
2023-10-26 13:33:37.649,17035,233066,196817,4416,1.3520688,2517,0.770642475
2023-10-26 13:33:37.649,17036,233040,196828,5485,1.679369875,2418,0.74033115
2023-10-26 13:33:37.679,17037,233055,196820,377,0.115427975,2418,0.74033115
2023-10-26 13:33:37.679,17038,233025,196828,-407,-0.124613225,2450,0.75012875
2023-10-26 13:33:37.679,17039,233015,196815,4600,1.408405,2389,0.731452075
2023-10-26 13:33:37.679,17040,233018,196795,5840,1.788062,2302,0.70481485
2023-10-26 13:33:37.679,17041,233005,196794,371,0.113590925,2312,0.7078766
2023-10-26 13:33:37.679,17042,233017,196774,-475,-0.145433125,2355,0.721042125
2023-10-26 13:33:37.679,17043,233010,196772,4386,1.34288355,2310,0.70726425
2023-10-26 13:33:37.709,17044,232996,196760,5742,1.75805685,2241,0.686138175
2023-10-26 13:33:37.709,17045,232984,196769,443,0.135635525,2272,0.6956296
2023-10-26 13:33:37.709,17046,232974,196723,-701,-0.214628675,2340,0.7164495
2023-10-26 13:33:37.709,17047,232949,196729,4253,1.302162275,2319,0.710019825
2023-10-26 13:33:37.709,17048,232968,196715,5760,1.763568,2268,0.6944049
2023-10-26 13:33:37.709,17049,232938,196723,557,0.170539475,2320,0.710326
2023-10-26 13:33:37.739,17050,232923,196701,-601,-0.184011175,2409,0.737575575
2023-10-26 13:33:37.739,17051,232927,196690,4445,1.360947875,2400,0.73482
2023-10-26 13:33:37.739,17052,232927,196687,5928,1.8150054,2352,0.7201236
2023-10-26 13:33:37.739,17053,232935,196690,421,0.128899675,2398,0.73420765
2023-10-26 13:33:37.739,17054,232942,196678,-1005,-0.307705875,2481,0.759620175
2023-10-26 13:33:37.739,17055,232934,196695,4326,1.32451305,2470,0.75625225
2023-10-26 13:33:37.739,17056,232935,196703,5958,1.82419065,2420,0.7409435
2023-10-26 13:33:37.739,17057,232933,196702,863,0.264229025,2461,0.753496675
2023-10-26 13:33:37.739,17058,232954,196691,-578,-0.17696915,2539,0.777378325
2023-10-26 13:33:37.769,17059,232928,196680,5011,1.534242925,2522,0.77217335
2023-10-26 13:33:37.769,17060,232945,196680,7007,2.145368225,2464,0.7544152
2023-10-26 13:33:37.769,17061,232931,196692,1223,0.374452025,2498,0.76482515
2023-10-26 13:33:37.769,17062,232938,196675,-1482,-0.45375135,2572,0.7874821
2023-10-26 13:33:37.769,17063,232946,196687,2761,0.845349175,2552,0.7813586
2023-10-26 13:33:37.769,17064,232933,196673,4899,1.499951325,2488,0.7617634
2023-10-26 13:33:37.769,17065,232916,196647,-116,-0.0355163,2510,0.76849925
2023-10-26 13:33:37.799,17066,232943,196656,-1714,-0.52478395,2567,0.785951225
2023-10-26 13:33:37.799,17067,232922,196655,3676,1.1254993,2531,0.774928925
2023-10-26 13:33:37.799,17068,232930,196650,6129,1.876546575,2460,0.7531905
2023-10-26 13:33:37.799,17069,232920,196649,936,0.2865798,2488,0.7617634
2023-10-26 13:33:37.799,17070,232940,196646,-895,-0.274026625,2557,0.782889475
2023-10-26 13:33:37.829,17071,232927,196642,3758,1.15060565,2527,0.773704225
2023-10-26 13:33:37.829,17072,232944,196654,5874,1.79847195,2452,0.7507411
2023-10-26 13:33:37.829,17073,232959,196661,845,0.258717875,2472,0.7568646
2023-10-26 13:33:37.829,17074,232944,196665,-990,-0.30311325,2541,0.777990675
2023-10-26 13:33:37.829,17075,232926,196671,3830,1.17265025,2528,0.7740104
2023-10-26 13:33:37.829,17076,232962,196679,5916,1.8113313,2489,0.762069575
2023-10-26 13:33:37.829,17077,232980,196659,743,0.227488025,2565,0.785338875
2023-10-26 13:33:37.829,17078,232948,196687,-1082,-0.33128135,2689,0.823304575
2023-10-26 13:33:37.869,17079,232978,196691,3870,1.18489725,2696,0.8254478
2023-10-26 13:33:37.869,17080,232976,196691,6035,1.847766125,2617,0.801259975
2023-10-26 13:33:37.869,17081,232996,196692,865,0.264841375,2601,0.796361175
2023-10-26 13:33:37.869,17082,232997,196698,-775,-0.237285625,2616,0.8009538
2023-10-26 13:33:37.869,17083,233002,196700,4059,1.242764325,2524,0.7727857
2023-10-26 13:33:37.869,17084,233021,196690,6125,1.875321875,2373,0.726553275
2023-10-26 13:33:37.899,17085,233016,196687,1060,0.3245455,2316,0.7091013
2023-10-26 13:33:37.899,17086,233025,196703,-547,-0.167477725,2320,0.710326
2023-10-26 13:33:37.899,17087,233019,196710,4027,1.232966725,2242,0.68644435
2023-10-26 13:33:37.899,17088,233021,196702,6292,1.9264531,2115,0.647560125
2023-10-26 13:33:37.899,17089,232990,196701,1217,0.372614975,2090,0.63990575
2023-10-26 13:33:37.899,17090,233000,196680,-639,-0.195645825,2150,0.65827625
2023-10-26 13:33:37.899,17091,232974,196694,4048,1.2393964,2154,0.65950095
2023-10-26 13:33:37.899,17092,232989,196685,6402,1.96013235,2120,0.649091
2023-10-26 13:33:37.929,17093,232979,196682,1440,0.440892,2175,0.665930625
2023-10-26 13:33:37.929,17094,232974,196691,-770,-0.23575475,2287,0.700222225
2023-10-26 13:33:37.929,17095,232980,196669,3892,1.1916331,2320,0.710326
2023-10-26 13:33:37.929,17096,232965,196666,6456,1.9766658,2306,0.70603955
2023-10-26 13:33:37.929,17097,232956,196650,1741,0.533050675,2375,0.727165625
2023-10-26 13:33:37.929,17098,232962,196655,-694,-0.21248545,2486,0.76115105
2023-10-26 13:33:37.929,17099,232973,196667,3951,1.209697425,2493,0.763294275
2023-10-26 13:33:37.959,17100,232997,196662,6712,2.0550466,2424,0.7421682
2023-10-26 13:33:37.959,17101,232952,196649,1935,0.592448625,2423,0.741862025
2023-10-26 13:33:37.959,17102,232973,196669,-697,-0.213403975,2475,0.757783125
2023-10-26 13:33:37.959,17103,232967,196655,3832,1.1732626,2464,0.7544152
2023-10-26 13:33:37.959,17104,233004,196672,6494,1.98830045,2426,0.74278055
2023-10-26 13:33:37.989,17105,232994,196675,1722,0.52723335,2493,0.763294275
2023-10-26 13:33:37.989,17106,232999,196670,-662,-0.20268785,2620,0.8021785
2023-10-26 13:33:37.989,17107,233002,196661,4079,1.248887825,2653,0.812282275
2023-10-26 13:33:37.989,17108,233013,196681,6520,1.996261,2614,0.80034145
2023-10-26 13:33:38.019,17109,233016,196679,1589,0.486512075,2647,0.810445225
2023-10-26 13:33:38.019,17110,233011,196683,-829,-0.253819075,2730,0.83585775
2023-10-26 13:33:38.019,17111,233018,196690,3787,1.159484725,2728,0.8352454
2023-10-26 13:33:38.019,17112,233005,196675,6385,1.954927375,2674,0.81871195
2023-10-26 13:33:38.019,17113,232995,196679,1814,0.55540145,2711,0.830040425
2023-10-26 13:33:38.019,17114,232986,196664,-664,-0.2033002,2808,0.8597394
2023-10-26 13:33:38.049,17115,232993,196650,3619,1.108047325,2815,0.861882625
2023-10-26 13:33:38.049,17116,232940,196641,6243,1.911450525,2756,0.8438183
2023-10-26 13:33:38.049,17117,232931,196617,1656,0.5070258,2780,0.8511665
2023-10-26 13:33:38.049,17118,232882,196611,-1063,-0.325464025,2868,0.8781099
2023-10-26 13:33:38.049,17119,232889,196595,3432,1.0507926,2873,0.879640775
2023-10-26 13:33:38.049,17120,232862,196573,6332,1.9387001,2815,0.861882625
2023-10-26 13:33:38.079,17121,232848,196568,1671,0.511618425,2837,0.868618475
2023-10-26 13:33:38.079,17122,232850,196576,-1096,-0.3355678,2922,0.89464335
2023-10-26 13:33:38.079,17123,232814,196566,3265,0.999661375,2928,0.8964804
2023-10-26 13:33:38.079,17124,232820,196572,6645,2.034532875,2869,0.878416075
2023-10-26 13:33:38.119,17125,232823,196566,2289,0.700834575,2884,0.8830087
2023-10-26 13:33:38.119,17126,232819,196565,-920,-0.281681,2954,0.90444095
2023-10-26 13:33:38.119,17127,232825,196554,3360,1.028748,2940,0.9001545
2023-10-26 13:33:38.119,17128,232835,196558,6633,2.030858775,2857,0.874741975
2023-10-26 13:33:38.119,17129,232824,196556,2187,0.669604725,2847,0.871680225
2023-10-26 13:33:38.119,17130,232835,196558,-902,-0.27616985,2902,0.88851985
2023-10-26 13:33:38.149,17131,232844,196558,3457,1.058446975,2884,0.8830087
2023-10-26 13:33:38.149,17132,232857,196571,6597,2.019836475,2802,0.85790235
2023-10-26 13:33:38.149,17133,232858,196570,1945,0.595510375,2795,0.855759125
2023-10-26 13:33:38.149,17134,232868,196575,-812,-0.2486141,2849,0.872292575
2023-10-26 13:33:38.149,17135,232858,196578,3810,1.16652675,2820,0.8634135
2023-10-26 13:33:38.149,17136,232871,196583,6732,2.0611701,2725,0.834326875
2023-10-26 13:33:38.179,17137,232852,196576,2107,0.645110725,2708,0.8291219
2023-10-26 13:33:38.179,17138,232877,196584,-751,-0.229937425,2758,0.84443065
2023-10-26 13:33:38.179,17139,232858,196578,3615,1.106822625,2728,0.8352454
2023-10-26 13:33:38.179,17140,232869,196581,7063,2.162514025,2632,0.8058526
2023-10-26 13:33:38.179,17141,232861,196564,2591,0.793299425,2621,0.802484675
2023-10-26 13:33:38.179,17142,232837,196568,-515,-0.157680125,2690,0.82361075
2023-10-26 13:33:38.179,17143,232856,196554,3545,1.085390375,2691,0.823916925
2023-10-26 13:33:38.209,17144,232858,196560,6988,2.1395509,2627,0.804321725
2023-10-26 13:33:38.209,17145,232838,196573,2695,0.825141625,2642,0.80891435
2023-10-26 13:33:38.209,17146,232864,196572,-944,-0.2890292,2731,0.836163925
2023-10-26 13:33:38.209,17147,232851,196546,3525,1.079266875,2749,0.841675075
2023-10-26 13:33:38.209,17148,232869,196575,7342,2.24793685,2698,0.82606015
2023-10-26 13:33:38.209,17149,232846,196560,2997,0.917606475,2723,0.833714525
2023-10-26 13:33:38.209,17150,232869,196552,-742,-0.22718185,2820,0.8634135
2023-10-26 13:33:38.245,17151,232859,196568,3460,1.0593655,2846,0.87137405
2023-10-26 13:33:38.245,17152,232851,196565,6977,2.136182975,2798,0.85667765
2023-10-26 13:33:38.245,17153,232850,196557,2641,0.808608175,2812,0.8609641
2023-10-26 13:33:38.245,17154,232869,196562,-717,-0.219527475,2891,0.885151925
2023-10-26 13:33:38.269,17155,232852,196546,3441,1.053548175,2900,0.8879075
2023-10-26 13:33:38.269,17156,232839,196577,6799,2.081683825,2842,0.87014935
2023-10-26 13:33:38.269,17157,232848,196565,2576,0.7887068,2861,0.875966675
2023-10-26 13:33:38.269,17158,232873,196559,-891,-0.272801925,2959,0.905971825
2023-10-26 13:33:38.269,17159,232861,196554,3193,0.977616775,2989,0.915157075
2023-10-26 13:33:38.269,17160,232851,196575,6704,2.0525972,2945,0.901685375
2023-10-26 13:33:38.269,17161,232877,196567,2420,0.7409435,2975,0.910870625
2023-10-26 13:33:38.297,17162,232884,196586,-816,-0.2498388,3079,0.942712825
2023-10-26 13:33:38.297,17163,232889,196592,3420,1.0471185,3102,0.94975485
2023-10-26 13:33:38.297,17164,232883,196576,6544,2.0036092,3048,0.9332214
2023-10-26 13:33:38.297,17165,232880,196572,2376,0.7274718,3072,0.9405696
2023-10-26 13:33:38.297,17166,232877,196585,-1047,-0.320565225,3176,0.9724118
2023-10-26 13:33:38.297,17167,232882,196562,3325,1.018031875,3201,0.980066175
2023-10-26 13:33:38.297,17168,232892,196580,7086,2.16955605,3136,0.9601648
2023-10-26 13:33:38.333,17169,232879,196582,3069,0.939651075,3133,0.959246275
2023-10-26 13:33:38.333,17170,232882,196565,-619,-0.189522325,3205,0.981290875
2023-10-26 13:33:38.333,17171,232874,196570,3083,0.943937525,3211,0.983127925
2023-10-26 13:33:38.333,17172,232871,196581,7250,2.21976875,3138,0.96077715
2023-10-26 13:33:38.333,17173,232869,196559,3396,1.0397703,3125,0.956796875
2023-10-26 13:33:38.363,17174,232893,196546,-488,-0.1494134,3186,0.97547355
2023-10-26 13:33:38.363,17175,232861,196556,3180,0.9736365,3175,0.972105625
2023-10-26 13:33:38.363,17176,232852,196531,7236,2.2154823,3075,0.941488125
2023-10-26 13:33:38.363,17177,232866,196534,3189,0.976392075,3035,0.929241125
2023-10-26 13:33:38.363,17178,232867,196532,-726,-0.22228305,3076,0.9417943
2023-10-26 13:33:38.363,17179,232826,196522,3182,0.97424885,3060,0.9368955
2023-10-26 13:33:38.363,17180,232817,196513,7315,2.239670125,2970,0.90933975
2023-10-26 13:33:38.399,17181,232828,196501,3422,1.04773085,2940,0.9001545
2023-10-26 13:33:38.399,17182,232823,196494,-668,-0.2045249,2981,0.912707675
2023-10-26 13:33:38.399,17183,232790,196506,3220,0.9858835,2957,0.905359475
2023-10-26 13:33:38.399,17184,232805,196494,7298,2.23446515,2865,0.877191375
2023-10-26 13:33:38.399,17185,232788,196490,3508,1.0740619,2856,0.8744358
2023-10-26 13:33:38.399,17186,232805,196491,-470,-0.14390225,2942,0.90076685
2023-10-26 13:33:38.430,17187,232797,196477,3026,0.92648555,2971,0.909645925
2023-10-26 13:33:38.430,17188,232789,196479,7057,2.160676975,2920,0.894031
2023-10-26 13:33:38.430,17189,232781,196484,3223,0.986802025,2940,0.9001545
2023-10-26 13:33:38.430,17190,232786,196466,-880,-0.269434,3050,0.93383375
2023-10-26 13:33:38.430,17191,232772,196471,3052,0.9344461,3098,0.94853015
2023-10-26 13:33:38.430,17192,232785,196461,7289,2.231709575,3066,0.93873255
2023-10-26 13:33:38.430,17193,232780,196468,3504,1.0728372,3102,0.94975485
2023-10-26 13:33:38.430,17194,232809,196475,-802,-0.24555235,3221,0.986189675
2023-10-26 13:33:38.465,17195,232785,196451,2602,0.79666735,3266,0.99996755
2023-10-26 13:33:38.465,17196,232807,196464,7071,2.164963425,3214,0.98404645
2023-10-26 13:33:38.465,17197,232787,196468,3744,1.1463192,3218,0.98527115
2023-10-26 13:33:38.465,17198,232800,196456,-671,-0.205443425,3307,1.012520725
2023-10-26 13:33:38.465,17199,232761,196463,2596,0.7948303,3336,1.0213998
2023-10-26 13:33:38.465,17200,232787,196466,6956,2.1297533,3272,1.0018046
2023-10-26 13:33:38.465,17201,232789,196444,3485,1.067019875,3260,0.9981305
2023-10-26 13:33:38.496,17202,232761,196439,-895,-0.274026625,3332,1.0201751
2023-10-26 13:33:38.496,17203,232741,196428,2464,0.7544152,3348,1.0250739
2023-10-26 13:33:38.496,17204,232750,196438,6959,2.130671825,3276,1.0030293
2023-10-26 13:33:38.496,17205,232754,196430,3768,1.1536674,3261,0.998436675
2023-10-26 13:33:38.496,17206,232742,196418,-846,-0.25902405,3332,1.0201751
2023-10-26 13:33:38.520,17207,232749,196424,2646,0.81013905,3342,1.02323685
2023-10-26 13:33:38.520,17208,232739,196422,7126,2.18180305,3261,0.998436675
2023-10-26 13:33:38.520,17209,232735,196418,3818,1.16897615,3235,0.990476125
2023-10-26 13:33:38.520,17210,232762,196420,-580,-0.1775815,3299,1.010071325
2023-10-26 13:33:38.520,17211,232745,196428,2623,0.803097025,3303,1.011296025
2023-10-26 13:33:38.520,17212,232750,196431,7051,2.158839925,3210,0.98282175
2023-10-26 13:33:38.520,17213,232760,196410,3962,1.21306535,3172,0.9711871
2023-10-26 13:33:38.551,17214,232755,196430,-139,-0.042558325,3230,0.98894525
2023-10-26 13:33:38.551,17215,232751,196423,3220,0.9858835,3240,0.992007
2023-10-26 13:33:38.551,17216,232740,196399,8015,2.453992625,3158,0.96690065
2023-10-26 13:33:38.551,17217,232720,196400,5142,1.57435185,3129,0.958021575
2023-10-26 13:33:38.551,17218,232716,196398,93,0.028474275,3193,0.977616775
2023-10-26 13:33:38.551,17219,232722,196378,1715,0.525090125,3202,0.98037235
2023-10-26 13:33:38.586,17220,232698,196369,5727,1.753464225,3114,0.95342895
2023-10-26 13:33:38.586,17221,232683,196368,2707,0.828815725,3079,0.942712825
2023-10-26 13:33:38.586,17222,232692,196363,-1421,-0.435074675,3144,0.9626142
2023-10-26 13:33:38.586,17223,232684,196343,2151,0.658582425,3165,0.969043875
2023-10-26 13:33:38.586,17224,232666,196345,6733,2.061476275,3089,0.945774575
2023-10-26 13:33:38.586,17225,232663,196351,3942,1.20694185,3059,0.936589325
2023-10-26 13:33:38.586,17226,232662,196328,-600,-0.183705,3125,0.956796875
2023-10-26 13:33:38.586,17227,232667,196343,2540,0.7776845,3152,0.9650636
2023-10-26 13:33:38.586,17228,232676,196340,7160,2.192213,3095,0.947611625
2023-10-26 13:33:38.616,17229,232665,196345,4324,1.3239007,3089,0.945774575
2023-10-26 13:33:38.616,17230,232667,196340,-336,-0.1028748,3184,0.9748612
2023-10-26 13:33:38.616,17231,232635,196339,2500,0.7654375,3243,0.992925525
2023-10-26 13:33:38.616,17232,232674,196348,7171,2.195580925,3217,0.984964975
2023-10-26 13:33:38.616,17233,232668,196338,4494,1.37595045,3251,0.995374925
2023-10-26 13:33:38.616,17234,232656,196338,-267,-0.081748725,3398,1.04038265
2023-10-26 13:33:38.616,17235,232663,196311,2569,0.786563575,3504,1.0728372
2023-10-26 13:33:38.653,17236,232663,196328,7265,2.224361375,3485,1.067019875
2023-10-26 13:33:38.653,17237,232630,196302,4567,1.398301225,3466,1.06120255
2023-10-26 13:33:38.653,17238,232619,196306,-216,-0.0661338,3502,1.07222485
2023-10-26 13:33:38.653,17239,232603,196279,2468,0.7556399,3472,1.0630396
2023-10-26 13:33:38.653,17240,232594,196280,7246,2.21854405,3334,1.02078745
2023-10-26 13:33:38.673,17241,232580,196272,4587,1.404424725,3228,0.9883329
2023-10-26 13:33:38.673,17242,232566,196253,-60,-0.0183705,3209,0.982515575
2023-10-26 13:33:38.673,17243,232582,196255,2451,0.750434925,3150,0.96445125
2023-10-26 13:33:38.673,17244,232588,196261,7205,2.205990875,3004,0.9197497
2023-10-26 13:33:38.703,17245,232584,196235,4741,1.451575675,2914,0.89219395
2023-10-26 13:33:38.703,17246,232583,196269,-405,-0.124000875,2945,0.901685375
2023-10-26 13:33:38.703,17247,232583,196263,2351,0.719817425,2975,0.910870625
2023-10-26 13:33:38.703,17248,232578,196257,7284,2.2301787,2943,0.901073025
2023-10-26 13:33:38.703,17249,232581,196246,4850,1.48494875,2971,0.909645925
2023-10-26 13:33:38.703,17250,232586,196265,-201,-0.061541175,3105,0.950673375
2023-10-26 13:33:38.743,17251,232588,196256,2285,0.699609875,3206,0.98159705
2023-10-26 13:33:38.743,17252,232586,196244,7259,2.222524325,3221,0.986189675
2023-10-26 13:33:38.743,17253,232566,196237,4782,1.46412885,3286,1.00609105
2023-10-26 13:33:38.743,17254,232572,196232,223,0.068277025,3447,1.055385225
2023-10-26 13:33:38.743,17255,232553,196214,2466,0.75502755,3549,1.086615075
2023-10-26 13:33:38.743,17256,232539,196219,7251,2.220074925,3517,1.076817475
2023-10-26 13:33:38.773,17257,232539,196215,4750,1.45433125,3486,1.06732605
2023-10-26 13:33:38.773,17258,232538,196190,-237,-0.072563475,3534,1.08202245
2023-10-26 13:33:38.773,17259,232547,196206,1981,0.606532675,3550,1.08692125
2023-10-26 13:33:38.773,17260,232555,196207,7268,2.2252799,3481,1.065795175
2023-10-26 13:33:38.773,17261,232555,196207,5049,1.545877575,3463,1.060284025
2023-10-26 13:33:38.773,17262,232555,196212,-49,-0.015002575,3554,1.08814595
2023-10-26 13:33:38.773,17263,232546,196202,1846,0.56519905,3606,1.10406705
2023-10-26 13:33:38.803,17264,232547,196202,7185,2.199867375,3546,1.08569655
2023-10-26 13:33:38.803,17265,232569,196203,4910,1.50331925,3508,1.0740619
2023-10-26 13:33:38.803,17266,232573,196197,-215,-0.065827625,3564,1.0912077
2023-10-26 13:33:38.803,17267,232576,196203,1960,0.600103,3587,1.098249725
2023-10-26 13:33:38.803,17268,232565,196204,6820,2.0881135,3514,1.07589895
2023-10-26 13:33:38.803,17269,232556,196187,4948,1.5149539,3480,1.065489
2023-10-26 13:33:38.803,17270,232549,196190,-322,-0.09858835,3551,1.087227425
2023-10-26 13:33:38.833,17271,232545,196175,1636,0.5009023,3601,1.102536175
2023-10-26 13:33:38.833,17272,232538,196176,6817,2.087194975,3553,1.087839775
2023-10-26 13:33:38.833,17273,232534,196156,4848,1.4843364,3531,1.081103925
2023-10-26 13:33:38.833,17274,232538,196153,-414,-0.12675645,3604,1.1034547
2023-10-26 13:33:38.833,17275,232480,196142,1680,0.514374,3642,1.11508935
2023-10-26 13:33:38.863,17276,232491,196140,6988,2.1395509,3574,1.09426945
2023-10-26 13:33:38.863,17277,232466,196141,5270,1.61354225,3531,1.081103925
2023-10-26 13:33:38.863,17278,232474,196121,-46,-0.01408405,3595,1.100699125
2023-10-26 13:33:38.863,17279,232454,196116,1782,0.54560385,3633,1.112333775
2023-10-26 13:33:38.863,17280,232453,196113,7066,2.16343255,3565,1.091513875
2023-10-26 13:33:38.863,17281,232468,196108,5408,1.6557944,3519,1.077429825
2023-10-26 13:33:38.863,17282,232449,196107,183,0.056030025,3571,1.093350925
2023-10-26 13:33:38.893,17283,232436,196096,2060,0.6307205,3592,1.0997806
2023-10-26 13:33:38.893,17284,232421,196098,7085,2.169249875,3509,1.074368075
2023-10-26 13:33:38.893,17285,232432,196091,5519,1.689779825,3450,1.05630375
2023-10-26 13:33:38.893,17286,232450,196099,417,0.127674975,3493,1.069469275
2023-10-26 13:33:38.893,17287,232441,196103,1977,0.605307975,3514,1.07589895
2023-10-26 13:33:38.893,17288,232442,196122,7292,2.2326281,3428,1.0495679
2023-10-26 13:33:38.923,17289,232459,196107,5623,1.721622025,3363,1.029666525
2023-10-26 13:33:38.923,17290,232434,196120,284,0.0869537,3404,1.0422197
2023-10-26 13:33:38.923,17291,232478,196121,1750,0.53580625,3428,1.0495679
2023-10-26 13:33:38.923,17292,232466,196151,7144,2.1873142,3349,1.025380075
2023-10-26 13:33:38.923,17293,232471,196127,5823,1.782857025,3289,1.007009575
2023-10-26 13:33:38.923,17294,232502,196135,482,0.14757635,3336,1.0213998
2023-10-26 13:33:38.923,17295,232472,196132,1687,0.516517225,3369,1.031503575
2023-10-26 13:33:38.953,17296,232465,196130,7146,2.18792655,3307,1.012520725
2023-10-26 13:33:38.953,17297,232474,196117,5878,1.79969665,3277,1.003335475
2023-10-26 13:33:38.953,17298,232468,196124,488,0.1494134,3365,1.030278875
2023-10-26 13:33:38.953,17299,232440,196114,1801,0.551421175,3449,1.055997575
2023-10-26 13:33:38.953,17300,232472,196116,7053,2.159452275,3432,1.0507926
2023-10-26 13:33:38.953,17301,232446,196097,5806,1.77765205,3429,1.049874075
2023-10-26 13:33:38.953,17302,232437,196113,413,0.126450275,3528,1.0801854
2023-10-26 13:33:38.993,17303,232423,196093,1520,0.465386,3612,1.1059041
2023-10-26 13:33:38.993,17304,232444,196088,6785,2.077397375,3593,1.100086775
2023-10-26 13:33:38.993,17305,232437,196095,5840,1.788062,3588,1.0985559
2023-10-26 13:33:38.993,17306,232426,196112,398,0.12185765,3687,1.128867225
2023-10-26 13:33:38.993,17307,232433,196094,1610,0.49294175,3770,1.15427975
2023-10-26 13:33:38.993,17308,232413,196093,6948,2.1273039,3737,1.144175975
2023-10-26 13:33:39.023,17309,232401,196080,5556,1.7011083,3705,1.134378375
2023-10-26 13:33:39.023,17310,232421,196080,77,0.023575475,3771,1.154585925
2023-10-26 13:33:39.023,17311,232394,196076,1359,0.416091825,3821,1.169894675
2023-10-26 13:33:39.023,17312,232392,196073,6643,2.033920525,3766,1.15305505
2023-10-26 13:33:39.053,17313,232381,196077,5704,1.7464222,3723,1.139889525
2023-10-26 13:33:39.053,17314,232394,196083,138,0.04225215,3789,1.160097075
2023-10-26 13:33:39.053,17315,232389,196072,1084,0.3318937,3845,1.177242875
2023-10-26 13:33:39.053,17316,232406,196078,6290,1.92584075,3793,1.161321775
2023-10-26 13:33:39.053,17317,232400,196061,5502,1.68457485,3744,1.1463192
2023-10-26 13:33:39.053,17318,232393,196061,71,0.021738425,3798,1.16285265
2023-10-26 13:33:39.083,17319,232388,196058,1019,0.311992325,3845,1.177242875
2023-10-26 13:33:39.083,17320,232390,196077,6401,1.959826175,3783,1.158260025
2023-10-26 13:33:39.083,17321,232383,196090,5652,1.7305011,3723,1.139889525
2023-10-26 13:33:39.083,17322,232408,196057,143,0.043783025,3768,1.1536674
2023-10-26 13:33:39.083,17323,232410,196078,895,0.274026625,3810,1.16652675
2023-10-26 13:33:39.083,17324,232377,196076,6271,1.920023425,3748,1.1475439
2023-10-26 13:33:39.113,17325,232391,196082,5563,1.703251525,3685,1.128254875
2023-10-26 13:33:39.113,17326,232374,196072,154,0.04715095,3718,1.13835865
2023-10-26 13:33:39.113,17327,232403,196053,878,0.26882165,3740,1.1450945
2023-10-26 13:33:39.113,17328,232389,196059,6381,1.953702675,3657,1.119681975
2023-10-26 13:33:39.113,17329,232367,196065,5695,1.743666625,3579,1.095800325
2023-10-26 13:33:39.113,17330,232375,196066,45,0.013777875,3607,1.104373225
2023-10-26 13:33:39.113,17331,232387,196053,774,0.23697945,3634,1.11263995
2023-10-26 13:33:39.143,17332,232370,196033,6242,1.91114435,3554,1.08814595
2023-10-26 13:33:39.143,17333,232376,196049,5776,1.7684668,3468,1.0618149
2023-10-26 13:33:39.143,17334,232386,196038,216,0.0661338,3484,1.0667137
2023-10-26 13:33:39.143,17335,232343,196050,761,0.232999175,3499,1.071306325
2023-10-26 13:33:39.143,17336,232377,196033,6067,1.857563725,3411,1.044362925
2023-10-26 13:33:39.143,17337,232356,196040,6082,1.86215635,3328,1.0189504
2023-10-26 13:33:39.143,17338,232373,196030,316,0.0967513,3356,1.0275233
2023-10-26 13:33:39.173,17339,232370,196040,771,0.236060925,3386,1.03670855
2023-10-26 13:33:39.173,17340,232347,196038,6238,1.90991965,3311,1.013745425
2023-10-26 13:33:39.173,17341,232340,196017,5994,1.83521295,3234,0.99016995
2023-10-26 13:33:39.173,17342,232332,196017,460,0.1408405,3268,1.0005799
2023-10-26 13:33:39.173,17343,232334,196008,744,0.2277942,3314,1.01466395
2023-10-26 13:33:39.203,17344,232319,196009,6133,1.877771275,3262,0.99874285
2023-10-26 13:33:39.203,17345,232313,195997,6041,1.849603175,3209,0.982515575
2023-10-26 13:33:39.203,17346,232311,195991,611,0.187072925,3258,0.99751815
2023-10-26 13:33:39.203,17347,232311,195990,874,0.26759695,3307,1.012520725
2023-10-26 13:33:39.203,17348,232317,195981,6174,1.89032445,3250,0.99506875
2023-10-26 13:33:39.203,17349,232315,195982,6000,1.83705,3189,0.976392075
2023-10-26 13:33:39.203,17350,232319,196002,526,0.16104805,3238,0.99139465
2023-10-26 13:33:39.243,17351,232300,195986,967,0.296071225,3298,1.00976515
2023-10-26 13:33:39.243,17352,232295,195988,6066,1.85725755,3251,0.995374925
2023-10-26 13:33:39.243,17353,232292,195973,6310,1.93196425,3193,0.977616775
2023-10-26 13:33:39.243,17354,232314,195964,690,0.21126075,3241,0.992313175
2023-10-26 13:33:39.243,17355,232292,195970,746,0.22840655,3300,1.0103775
2023-10-26 13:33:39.243,17356,232315,195985,6134,1.87807745,3255,0.996599625
2023-10-26 13:33:39.273,17357,232311,195983,6162,1.88665035,3205,0.981290875
2023-10-26 13:33:39.273,17358,232311,195973,624,0.1910532,3266,0.99996755
2023-10-26 13:33:39.273,17359,232293,195962,776,0.2375918,3342,1.02323685
2023-10-26 13:33:39.273,17360,232285,195983,6217,1.903489975,3310,1.01343925
2023-10-26 13:33:39.273,17361,232285,195957,6280,1.922779,3261,0.998436675
2023-10-26 13:33:39.273,17362,232278,195972,666,0.20391255,3314,1.01466395
2023-10-26 13:33:39.273,17363,232286,195967,646,0.19778905,3385,1.036402375
2023-10-26 13:33:39.303,17364,232285,195975,5968,1.8272524,3356,1.0275233
2023-10-26 13:33:39.303,17365,232297,195973,6351,1.944517425,3311,1.013745425
2023-10-26 13:33:39.303,17366,232275,195961,727,0.222589225,3366,1.03058505
2023-10-26 13:33:39.303,17367,232264,195965,427,0.130736725,3435,1.051711125
2023-10-26 13:33:39.303,17368,232257,195951,5895,1.804901625,3400,1.040995
2023-10-26 13:33:39.303,17369,232257,195960,6060,1.8554205,3349,1.025380075
2023-10-26 13:33:39.303,17370,232255,195954,333,0.101956275,3399,1.040688825
2023-10-26 13:33:39.333,17371,232242,195947,413,0.126450275,3467,1.061508725
2023-10-26 13:33:39.333,17372,232258,195960,5850,1.79112375,3434,1.05140495
2023-10-26 13:33:39.333,17373,232238,195955,6210,1.90134675,3383,1.035790025
2023-10-26 13:33:39.333,17374,232248,195959,307,0.093995725,3432,1.0507926
2023-10-26 13:33:39.333,17375,232240,195944,-12,-0.0036741,3495,1.070081625
2023-10-26 13:33:39.333,17376,232222,195943,5582,1.70906885,3457,1.058446975
2023-10-26 13:33:39.363,17377,232246,195950,6361,1.947579175,3403,1.041913525
2023-10-26 13:33:39.363,17378,232207,195926,794,0.24310295,3451,1.056609925
2023-10-26 13:33:39.363,17379,232215,195942,387,0.118489725,3512,1.0752866
2023-10-26 13:33:39.363,17380,232213,195946,6007,1.839193225,3468,1.0618149
2023-10-26 13:33:39.363,17381,232220,195918,6991,2.140469425,3403,1.041913525
2023-10-26 13:33:39.363,17382,232212,195933,1710,0.52355925,3441,1.053548175
2023-10-26 13:33:39.363,17383,232205,195920,598,0.18309265,3500,1.0716125
2023-10-26 13:33:39.363,17384,232206,195906,4687,1.435042225,3454,1.05752845
2023-10-26 13:33:39.393,17385,232186,195908,5008,1.5333244,3383,1.035790025
2023-10-26 13:33:39.393,17386,232180,195908,-588,-0.1800309,3408,1.0434444
2023-10-26 13:33:39.393,17387,232182,195915,-904,-0.2767822,3447,1.055385225
2023-10-26 13:33:39.393,17388,232189,195918,4744,1.4524942,3380,1.0348715
2023-10-26 13:33:39.393,17389,232190,195909,6035,1.847766125,3294,1.00854045
2023-10-26 13:33:39.393,17390,232178,195919,620,0.1898285,3311,1.013745425
2023-10-26 13:33:39.423,17391,232180,195925,-123,-0.037659525,3348,1.0250739
2023-10-26 13:33:39.423,17392,232187,195931,5393,1.651201775,3276,1.0030293
2023-10-26 13:33:39.423,17393,232184,195941,6465,1.979421375,3177,0.972717975
2023-10-26 13:33:39.423,17394,232196,195950,876,0.2682093,3188,0.9760859
2023-10-26 13:33:39.423,17395,232177,195959,164,0.0502127,3234,0.99016995
2023-10-26 13:33:39.453,17396,232183,195957,5677,1.738155475,3188,0.9760859
2023-10-26 13:33:39.453,17397,232166,195969,6651,2.036369925,3130,0.95832775
2023-10-26 13:33:39.453,17398,232151,195983,1011,0.309542925,3196,0.9785353
2023-10-26 13:33:39.453,17399,232166,195984,116,0.0355163,3309,1.013133075
2023-10-26 13:33:39.453,17400,232145,195995,5553,1.700189775,3321,1.016807175
2023-10-26 13:33:39.453,17401,232156,195976,6908,2.1150569,3280,1.004254
2023-10-26 13:33:39.493,17402,232112,195982,1038,0.31780965,3310,1.01343925
2023-10-26 13:33:39.493,17403,232115,195979,270,0.08266725,3343,1.023543025
2023-10-26 13:33:39.493,17404,232093,195993,5669,1.735706075,3250,0.99506875
2023-10-26 13:33:39.493,17405,232077,195978,6921,2.119037175,3107,0.951285725
2023-10-26 13:33:39.493,17406,232046,195976,1271,0.389148425,3054,0.93505845
2023-10-26 13:33:39.493,17407,232032,195971,280,0.085729,3031,0.928016425
2023-10-26 13:33:39.523,17408,232026,195979,5788,1.7721409,2913,0.891887775
2023-10-26 13:33:39.523,17409,231981,195990,7181,2.198642675,2772,0.8487171
2023-10-26 13:33:39.523,17410,231997,195981,1447,0.443035225,2744,0.8401442
2023-10-26 13:33:39.523,17411,231967,195973,187,0.057254725,2774,0.84932945
2023-10-26 13:33:39.523,17412,231971,195991,5595,1.713049125,2744,0.8401442
2023-10-26 13:33:39.553,17413,231941,195977,7301,2.235383675,2719,0.832489825
2023-10-26 13:33:39.553,17414,231939,195987,1783,0.545910025,2818,0.86280115
2023-10-26 13:33:39.553,17415,231915,195986,603,0.184623525,2963,0.907196525
2023-10-26 13:33:39.553,17416,231903,195977,5696,1.7439728,3013,0.922505275
2023-10-26 13:33:39.553,17417,231908,195981,7372,2.2571221,3037,0.929853475
2023-10-26 13:33:39.553,17418,231859,195981,2037,0.623678475,3169,0.970268575
2023-10-26 13:33:39.583,17419,231871,195988,412,0.1261441,3335,1.021093625
2023-10-26 13:33:39.583,17420,231848,195990,5403,1.654263525,3382,1.03548385
2023-10-26 13:33:39.583,17421,231827,195988,6607,2.022898225,3361,1.029054175
2023-10-26 13:33:39.583,17422,231813,195986,832,0.2547376,3409,1.043750575
2023-10-26 13:33:39.583,17423,231813,195994,-170,-0.05204975,3475,1.063958125
2023-10-26 13:33:39.583,17424,231768,195996,6175,1.890630625,3438,1.05262965
2023-10-26 13:33:39.613,17425,231746,195983,8344,2.5547242,3377,1.033952975
2023-10-26 13:33:39.613,17426,231732,195982,2841,0.869843175,3438,1.05262965
2023-10-26 13:33:39.613,17427,231715,195979,1796,0.5498903,3553,1.087839775
2023-10-26 13:33:39.613,17428,231672,195970,7076,2.1664943,3564,1.0912077
2023-10-26 13:33:39.643,17429,231707,195996,8749,2.678725075,3521,1.078042175
2023-10-26 13:33:39.643,17430,231671,195992,2767,0.847186225,3568,1.0924324
2023-10-26 13:33:39.643,17431,231676,195982,428,0.1310429,3656,1.1193758
2023-10-26 13:33:39.643,17432,231659,195978,4509,1.380543075,3648,1.1169264
2023-10-26 13:33:39.643,17433,231695,196011,5664,1.7341752,3601,1.102536175
2023-10-26 13:33:39.643,17434,231656,195994,-308,-0.0943019,3660,1.1206005
2023-10-26 13:33:39.643,17435,231621,196007,-2538,-0.77707215,3771,1.154585925
2023-10-26 13:33:39.673,17436,231618,196013,2807,0.859433225,3781,1.157647675
2023-10-26 13:33:39.673,17437,231597,196013,4670,1.42983725,3729,1.141726575
2023-10-26 13:33:39.673,17438,231580,196016,-900,-0.2755575,3752,1.1487686
2023-10-26 13:33:39.673,17439,231554,195996,-2896,-0.8866828,3800,1.163465
2023-10-26 13:33:39.673,17440,231525,195998,1625,0.497534375,3742,1.14570685
2023-10-26 13:33:39.673,17441,231492,196009,3237,0.991088475,3651,1.117844925
2023-10-26 13:33:39.713,17442,231435,195980,-3095,-0.947611625,3677,1.125805475
2023-10-26 13:33:39.713,17443,231417,195981,-6004,-1.8382747,3775,1.155810625
2023-10-26 13:33:39.713,17444,231377,195951,-1507,-0.461405725,3807,1.165608225
2023-10-26 13:33:39.713,17445,231328,195967,168,0.0514374,3823,1.170507025
2023-10-26 13:33:39.743,17446,231289,195930,-5528,-1.6925354,3957,1.211534475
2023-10-26 13:33:39.743,17447,231222,195920,-7409,-2.268450575,4148,1.2700139
2023-10-26 13:33:39.743,17448,231174,195905,-2218,-0.67909615,4232,1.2957326
2023-10-26 13:33:39.743,17449,231123,195876,17,0.005204975,4232,1.2957326
2023-10-26 13:33:39.743,17450,231059,195851,-5065,-1.550776375,4274,1.30859195
2023-10-26 13:33:39.743,17451,231004,195837,-7062,-2.16220785,4294,1.31471545
2023-10-26 13:33:39.743,17452,230960,195809,-2035,-0.623066125,4133,1.265421275
2023-10-26 13:33:39.773,17453,230937,195784,-247,-0.075625225,3473,1.063345775
2023-10-26 13:33:39.773,17454,230889,195791,-5421,-1.659774675,3004,0.9197497
2023-10-26 13:33:39.773,17455,230872,195810,-7166,-2.19405005,2435,0.745536125
2023-10-26 13:33:39.773,17456,230858,195779,-1920,-0.587856,1528,0.4678354
2023-10-26 13:33:39.773,17457,230833,195784,113,0.034597775,1371,0.419765925
2023-10-26 13:33:39.773,17458,230810,195779,-5627,-1.722846725,1603,0.490798525
2023-10-26 13:33:39.803,17459,230777,195781,-8180,-2.5045115,1319,0.403844825
2023-10-26 13:33:39.803,17460,230764,195745,-3516,-1.0765113,669,0.204831075
2023-10-26 13:33:39.803,17461,230745,195765,-1024,-0.3135232,457,0.139921975
2023-10-26 13:33:39.803,17462,230708,195747,-6299,-1.928596325,97,0.029698975
2023-10-26 13:33:39.803,17463,230705,195745,-8798,-2.69372765,-675,-0.206668125
2023-10-26 13:33:39.803,17464,230702,195757,-4217,-1.291139975,-2180,-0.6674615
2023-10-26 13:33:39.803,17465,230697,195753,-1814,-0.55540145,-2712,-0.8303466
2023-10-26 13:33:39.833,17466,230700,195781,-6939,-2.124548325,-2518,-0.77094865
2023-10-26 13:33:39.833,17467,230725,195775,-9057,-2.773026975,-2724,-0.8340207
2023-10-26 13:33:39.833,17468,230692,195777,-4212,-1.2896091,-3150,-0.96445125
2023-10-26 13:33:39.833,17469,230717,195780,-1800,-0.551115,-2966,-0.90811505
2023-10-26 13:33:39.833,17470,230709,195788,-7004,-2.1444497,-3171,-0.970880925
2023-10-26 13:33:39.833,17471,230685,195773,-9475,-2.901008125,-3343,-1.023543025
2023-10-26 13:33:39.833,17472,230684,195798,-4508,-1.3802369,-3535,-1.082328625
2023-10-26 13:33:39.863,17473,230709,195797,-1705,-0.522028375,-3714,-1.13713395
2023-10-26 13:33:39.863,17474,230697,195782,-6824,-2.0893382,-3749,-1.147850075
2023-10-26 13:33:39.863,17475,230648,195787,-9420,-2.8841685,-3695,-1.131316625
2023-10-26 13:33:39.863,17476,230676,195784,-4648,-1.4231014,-3723,-1.139889525
2023-10-26 13:33:39.863,17477,230660,195798,-1852,-0.5670361,-3819,-1.169282325
2023-10-26 13:33:39.863,17478,230648,195779,-6490,-1.98707575,-3848,-1.1781614
2023-10-26 13:33:39.863,17479,230628,195791,-8957,-2.742409475,-3845,-1.177242875
2023-10-26 13:33:39.863,17480,230623,195779,-4285,-1.311959875,-3967,-1.214596225
2023-10-26 13:33:39.863,17481,230612,195778,-1170,-0.35822475,-4182,-1.28042385
2023-10-26 13:33:39.893,17482,230571,195754,-5976,-1.8297018,-4334,-1.32696245
2023-10-26 13:33:39.893,17483,230573,195747,-8977,-2.748532975,-4441,-1.359723175
2023-10-26 13:33:39.893,17484,230549,195756,-4196,-1.2847103,-4637,-1.419733475
2023-10-26 13:33:39.893,17485,230530,195744,-867,-0.265453725,-4883,-1.495052525
2023-10-26 13:33:39.893,17486,230536,195716,-5401,-1.653651175,-5023,-1.537917025
2023-10-26 13:33:39.893,17487,230489,195733,-8163,-2.499306525,-5083,-1.556287525
2023-10-26 13:33:39.893,17488,230457,195697,-3585,-1.097637375,-5216,-1.5970088
2023-10-26 13:33:39.923,17489,230445,195695,-742,-0.22718185,-5404,-1.6545697
2023-10-26 13:33:39.923,17490,230392,195650,-5510,-1.68702425,-5494,-1.68212545
2023-10-26 13:33:39.923,17491,230353,195647,-8152,-2.4959386,-5499,-1.683656325
2023-10-26 13:33:39.923,17492,230289,195595,-3306,-1.01221455,-5561,-1.702639175
2023-10-26 13:33:39.923,17493,230264,195579,-101,-0.030923675,-5662,-1.73356285
2023-10-26 13:33:39.923,17494,230224,195553,-4822,-1.47637585,-5661,-1.733256675
2023-10-26 13:33:39.963,17495,230190,195551,-7749,-2.372550075,-5585,-1.709987375
2023-10-26 13:33:39.963,17496,230180,195526,-3375,-1.033340625,-5588,-1.7109059
2023-10-26 13:33:39.963,17497,230149,195516,-174,-0.05327445,-5652,-1.7305011
2023-10-26 13:33:39.963,17498,230110,195477,-4438,-1.35880465,-5621,-1.721009675
2023-10-26 13:33:39.963,17499,230095,195485,-7256,-2.2216058,-5507,-1.686105725
2023-10-26 13:33:39.963,17500,230061,195473,-2891,-0.885151925,-5467,-1.673858725
2023-10-26 13:33:39.963,17501,230057,195470,285,0.087259875,-5490,-1.68090075
2023-10-26 13:33:39.963,17502,230076,195474,-4131,-1.264808925,-5419,-1.659162325
2023-10-26 13:33:39.993,17503,230082,195479,-6626,-2.02871555,-5261,-1.610786675
2023-10-26 13:33:39.993,17504,230074,195485,-2093,-0.640824275,-5170,-1.58292475
2023-10-26 13:33:39.993,17505,230090,195489,920,0.281681,-5145,-1.575270375
2023-10-26 13:33:39.993,17506,230111,195506,-3912,-1.1977566,-5047,-1.545265225
2023-10-26 13:33:39.993,17507,230119,195504,-7097,-2.172923975,-4887,-1.496277225
2023-10-26 13:33:39.993,17508,230116,195523,-2505,-0.766968375,-4807,-1.471783225
2023-10-26 13:33:40.023,17509,230147,195515,1286,0.39374105,-4794,-1.46780295
2023-10-26 13:33:40.023,17510,230145,195520,-2735,-0.837388625,-4702,-1.43963485
2023-10-26 13:33:40.023,17511,230137,195510,-5665,-1.734481375,-4535,-1.388503625
2023-10-26 13:33:40.023,17512,230123,195501,-1469,-0.449771075,-4448,-1.3618664
2023-10-26 13:33:40.023,17513,230113,195483,1873,0.573465775,-4444,-1.3606417
2023-10-26 13:33:40.053,17514,230100,195470,-2379,-0.728390325,-4373,-1.338903275
2023-10-26 13:33:40.053,17515,230057,195461,-5245,-1.605887875,-4230,-1.29512025
2023-10-26 13:33:40.053,17516,230046,195448,-933,-0.285661275,-4154,-1.27185095
2023-10-26 13:33:40.053,17517,230021,195419,2355,0.721042125,-4146,-1.26940155
2023-10-26 13:33:40.053,17518,229990,195415,-1939,-0.593673325,-4061,-1.243376675
2023-10-26 13:33:40.053,17519,229954,195401,-5246,-1.60619405,-3905,-1.195613375
2023-10-26 13:33:40.053,17520,229916,195375,-925,-0.283211875,-3820,-1.1695885
2023-10-26 13:33:40.053,17521,229904,195360,2602,0.79666735,-3800,-1.163465
2023-10-26 13:33:40.083,17522,229849,195324,-1528,-0.4678354,-3698,-1.13223515
2023-10-26 13:33:40.083,17523,229866,195333,-4592,-1.4059556,-3523,-1.078654525
2023-10-26 13:33:40.083,17524,229846,195301,-710,-0.21738425,-3424,-1.0483432
2023-10-26 13:33:40.083,17525,229819,195295,2970,0.90933975,-3405,-1.042525875
2023-10-26 13:33:40.083,17526,229790,195283,-1084,-0.3318937,-3316,-1.0152763
2023-10-26 13:33:40.083,17527,229790,195269,-4498,-1.37717515,-3150,-0.96445125
2023-10-26 13:33:40.113,17528,229765,195268,-505,-0.154618375,-3046,-0.93260905
2023-10-26 13:33:40.113,17529,229770,195255,3076,0.9417943,-3004,-0.9197497
2023-10-26 13:33:40.113,17530,229762,195263,-1026,-0.31413555,-2881,-0.882090175
2023-10-26 13:33:40.113,17531,229747,195248,-4159,-1.273381825,-2679,-0.820242825
2023-10-26 13:33:40.113,17532,229765,195247,-173,-0.052968275,-2543,-0.778603025
2023-10-26 13:33:40.143,17533,229768,195252,3286,1.00609105,-2479,-0.759007825
2023-10-26 13:33:40.143,17534,229768,195228,-753,-0.230549775,-2339,-0.716143325
2023-10-26 13:33:40.143,17535,229756,195235,-4351,-1.332167425,-2122,-0.64970335
2023-10-26 13:33:40.143,17536,229713,195235,-644,-0.1971767,-1979,-0.605920325
2023-10-26 13:33:40.143,17537,229741,195228,3301,1.010683675,-1923,-0.588774525
2023-10-26 13:33:40.143,17538,229724,195219,-699,-0.214016325,-1808,-0.5535644
2023-10-26 13:33:40.173,17539,229701,195215,-4234,-1.29634495,-1622,-0.49661585
2023-10-26 13:33:40.173,17540,229703,195201,-249,-0.076237575,-1505,-0.460793375
2023-10-26 13:33:40.173,17541,229723,195199,3750,1.14815625,-1472,-0.4506896
2023-10-26 13:33:40.173,17542,229716,195191,120,0.036741,-1385,-0.424052375
2023-10-26 13:33:40.173,17543,229697,195189,-3549,-1.086615075,-1237,-0.378738475
2023-10-26 13:33:40.173,17544,229669,195187,92,0.0281681,-1170,-0.35822475
2023-10-26 13:33:40.213,17545,229683,195165,3169,0.970268575,-1185,-0.362817375
2023-10-26 13:33:40.213,17546,229672,195179,-1453,-0.444872275,-1131,-0.346283925
2023-10-26 13:33:40.213,17547,229663,195178,-5723,-1.752239525,-988,-0.3025009
2023-10-26 13:33:40.213,17548,229647,195136,-1884,-0.5768337,-903,-0.276476025
2023-10-26 13:33:40.213,17549,229650,195144,2309,0.706958075,-897,-0.274638975
2023-10-26 13:33:40.213,17550,229617,195120,-1220,-0.3735335,-837,-0.256268475
2023-10-26 13:33:40.213,17551,229593,195114,-5036,-1.5418973,-710,-0.21738425
2023-10-26 13:33:40.243,17552,229593,195100,-1442,-0.44150435,-657,-0.201156975
2023-10-26 13:33:40.243,17553,229555,195099,2401,0.735126175,-694,-0.21248545
2023-10-26 13:33:40.243,17554,229569,195079,-1355,-0.414867125,-673,-0.206055775
2023-10-26 13:33:40.243,17555,229559,195078,-5332,-1.6325251,-574,-0.17574445
2023-10-26 13:33:40.243,17556,229549,195060,-1722,-0.52723335,-542,-0.16594685
2023-10-26 13:33:40.243,17557,229555,195058,2536,0.7764598,-592,-0.1812556
2023-10-26 13:33:40.243,17558,229509,195064,-455,-0.139309625,-575,-0.176050625
2023-10-26 13:33:40.273,17559,229521,195047,-4411,-1.350537925,-468,-0.1432899
2023-10-26 13:33:40.273,17560,229503,195057,-1126,-0.34475305,-412,-0.1261441
2023-10-26 13:33:40.273,17561,229528,195037,3094,0.94730545,-431,-0.131961425
2023-10-26 13:33:40.273,17562,229515,195027,-197,-0.060316475,-400,-0.12247
2023-10-26 13:33:40.273,17563,229512,195022,-4534,-1.38819745,-313,-0.095832775
2023-10-26 13:33:40.303,17564,229513,195022,-1123,-0.343834525,-325,-0.099506875
2023-10-26 13:33:40.303,17565,229510,195019,2929,0.896786575,-456,-0.1396158
2023-10-26 13:33:40.303,17566,229482,195025,-251,-0.076849925,-552,-0.1690086
2023-10-26 13:33:40.303,17567,229479,194999,-4415,-1.351762625,-576,-0.1763568
2023-10-26 13:33:40.303,17568,229465,195006,-1128,-0.3453654,-668,-0.2045249
2023-10-26 13:33:40.303,17569,229449,194988,3061,0.937201675,-854,-0.26147345
2023-10-26 13:33:40.303,17570,229445,194991,-112,-0.0342916,-993,-0.304031775
2023-10-26 13:33:40.333,17571,229454,194982,-3776,-1.1561168,-1051,-0.321789925
2023-10-26 13:33:40.333,17572,229445,194977,-418,-0.12798115,-1164,-0.3563877
2023-10-26 13:33:40.333,17573,229427,194966,3989,1.221332075,-1347,-0.412417725
2023-10-26 13:33:40.333,17574,229425,194956,552,0.1690086,-1440,-0.440892
2023-10-26 13:33:40.333,17575,229427,194951,-3837,-1.174793475,-1399,-0.428338825
2023-10-26 13:33:40.333,17576,229429,194951,-642,-0.19656435,-1375,-0.420990625
2023-10-26 13:33:40.363,17577,229443,194929,3817,1.168669975,-1413,-0.432625275
2023-10-26 13:33:40.363,17578,229410,194940,769,0.235448575,-1374,-0.42068445
2023-10-26 13:33:40.363,17579,229391,194931,-3352,-1.0262986,-1222,-0.37414585
2023-10-26 13:33:40.363,17580,229386,194913,-213,-0.065215275,-1106,-0.33862955
2023-10-26 13:33:40.363,17581,229394,194926,4281,1.310735175,-1077,-0.329750475
2023-10-26 13:33:40.393,17582,229381,194908,1177,0.360367975,-1008,-0.3086244
2023-10-26 13:33:40.393,17583,229373,194913,-2839,-0.869230825,-870,-0.26637225
2023-10-26 13:33:40.393,17584,229500,194892,140,0.0428645,-800,-0.24494
2023-10-26 13:33:40.393,17585,229528,194911,4518,1.38329865,-833,-0.255043775
2023-10-26 13:33:40.393,17586,229515,194897,1593,0.487736775,-824,-0.2522882
2023-10-26 13:33:40.393,17587,229505,194895,-2682,-0.82116135,-720,-0.220446
2023-10-26 13:33:40.393,17588,229534,194881,144,0.0440892,-647,-0.198095225
2023-10-26 13:33:40.423,17589,229541,194895,4581,1.402587675,-649,-0.198707575
2023-10-26 13:33:40.423,17590,229530,194874,1690,0.51743575,-603,-0.184623525
2023-10-26 13:33:40.423,17591,229546,194880,-2913,-0.891887775,-476,-0.1457393
2023-10-26 13:33:40.423,17592,229544,194879,-14,-0.00428645,-405,-0.124000875
2023-10-26 13:33:40.423,17593,229541,194882,4596,1.4071803,-424,-0.1298182
2023-10-26 13:33:40.423,17594,229516,194879,1662,0.50886285,-387,-0.118489725
2023-10-26 13:33:40.463,17595,229527,194864,-2788,-0.8536159,-243,-0.074400525
2023-10-26 13:33:40.463,17596,229521,194882,60,0.0183705,-130,-0.03980275
2023-10-26 13:33:40.463,17597,229533,194869,4744,1.4524942,-100,-0.0306175
2023-10-26 13:33:40.463,17598,229515,194855,2002,0.61296235,-29,-0.008879075
2023-10-26 13:33:40.463,17599,229500,194847,-2812,-0.8609641,121,0.037047175
2023-10-26 13:33:40.493,17600,229492,194850,-301,-0.092158675,218,0.06674615
2023-10-26 13:33:40.493,17601,229498,194855,4213,1.289915275,218,0.06674615
2023-10-26 13:33:40.493,17602,229494,194858,1798,0.55050265,263,0.080524025
2023-10-26 13:33:40.493,17603,229494,194845,-2812,-0.8609641,408,0.1249194
2023-10-26 13:33:40.493,17604,229481,194833,-254,-0.07776845,515,0.157680125
2023-10-26 13:33:40.493,17605,229477,194828,4370,1.33798475,527,0.161354225
2023-10-26 13:33:40.523,17606,229461,194815,1829,0.559994075,572,0.1751321
2023-10-26 13:33:40.523,17607,229444,194810,-2892,-0.8854581,704,0.2155472
2023-10-26 13:33:40.523,17608,229432,194808,-355,-0.108692125,789,0.241572075
2023-10-26 13:33:40.523,17609,229438,194804,4503,1.378706025,775,0.237285625
2023-10-26 13:33:40.523,17610,229411,194783,1911,0.585100425,793,0.242796775
2023-10-26 13:33:40.523,17611,229396,194785,-3021,-0.924954675,890,0.27249575
2023-10-26 13:33:40.553,17612,229371,194777,-771,-0.236060925,930,0.28474275
2023-10-26 13:33:40.553,17613,229378,194746,4389,1.343802075,866,0.26514755
2023-10-26 13:33:40.553,17614,229336,194728,2144,0.6564392,838,0.25657465
2023-10-26 13:33:40.553,17615,229338,194729,-2626,-0.80401555,907,0.277700725
2023-10-26 13:33:40.553,17616,229313,194716,-477,-0.146045475,941,0.288110675
2023-10-26 13:33:40.553,17617,229319,194713,3962,1.21306535,877,0.268515475
2023-10-26 13:33:40.553,17618,229287,194696,1619,0.495697325,845,0.258717875
2023-10-26 13:33:40.583,17619,229286,194703,-3166,-0.96935005,905,0.277088375
2023-10-26 13:33:40.583,17620,229267,194678,-784,-0.2400412,925,0.283211875
2023-10-26 13:33:40.583,17621,229248,194690,3939,1.206023325,845,0.258717875
2023-10-26 13:33:40.583,17622,229279,194694,1769,0.541623575,797,0.244021475
2023-10-26 13:33:40.583,17623,229278,194687,-3082,-0.94363135,847,0.259330225
2023-10-26 13:33:40.583,17624,229260,194673,-770,-0.23575475,867,0.265453725
2023-10-26 13:33:40.583,17625,229274,194682,4263,1.305224025,791,0.242184425
2023-10-26 13:33:40.613,17626,229286,194688,1909,0.584488075,749,0.229325075
2023-10-26 13:33:40.613,17627,229320,194702,-3261,-0.998436675,802,0.24555235
2023-10-26 13:33:40.613,17628,229322,194710,-1280,-0.391904,820,0.2510635
2023-10-26 13:33:40.613,17629,229301,194705,3645,1.116007875,737,0.225650975
2023-10-26 13:33:40.613,17630,229317,194698,1567,0.479776225,686,0.21003605
2023-10-26 13:33:40.613,17631,229321,194727,-3416,-1.0458938,742,0.22718185
2023-10-26 13:33:40.643,17632,229320,194701,-1616,-0.4947788,780,0.2388165
2023-10-26 13:33:40.643,17633,229334,194713,3000,0.918525,725,0.221976875
2023-10-26 13:33:40.643,17634,229342,194705,941,0.288110675,693,0.212179275
2023-10-26 13:33:40.643,17635,229344,194733,-3690,-1.12978575,748,0.2290189
2023-10-26 13:33:40.643,17636,229318,194707,-847,-0.259330225,764,0.2339177
2023-10-26 13:33:40.643,17637,229321,194699,4175,1.278280625,673,0.206055775
2023-10-26 13:33:40.643,17638,229307,194694,2307,0.706345725,603,0.184623525
2023-10-26 13:33:40.673,17639,229313,194691,-2930,-0.89709275,634,0.19411495
2023-10-26 13:33:40.673,17640,229279,194664,-969,-0.296683575,645,0.197482875
2023-10-26 13:33:40.673,17641,229276,194678,3931,1.203573925,562,0.17207035
2023-10-26 13:33:40.673,17642,229255,194650,2546,0.77952155,506,0.15492455
2023-10-26 13:33:40.673,17643,229260,194651,-2686,-0.82238605,548,0.1677839
2023-10-26 13:33:40.673,17644,229265,194641,-686,-0.21003605,561,0.171764175
2023-10-26 13:33:40.713,17645,229266,194642,4004,1.2259247,476,0.1457393
2023-10-26 13:33:40.713,17646,229241,194636,1941,0.594285675,415,0.127062625
2023-10-26 13:33:40.713,17647,229258,194630,-2775,-0.849635625,450,0.13777875
2023-10-26 13:33:40.713,17648,229235,194628,-738,-0.22595715,455,0.139309625
2023-10-26 13:33:40.713,17649,229238,194628,4433,1.357273775,351,0.107467425
2023-10-26 13:33:40.713,17650,229249,194628,3037,0.929853475,258,0.07899315
2023-10-26 13:33:40.713,17651,229256,194626,-2304,-0.7054272,254,0.07776845
2023-10-26 13:33:40.713,17652,229240,194623,-685,-0.209729875,230,0.07042025
2023-10-26 13:33:40.713,17653,229218,194606,4268,1.3067549,117,0.035822475
2023-10-26 13:33:40.743,17654,229221,194608,2740,0.8389195,45,0.013777875
2023-10-26 13:33:40.743,17655,229243,194610,-2404,-0.7360447,90,0.02755575
2023-10-26 13:33:40.743,17656,229220,194601,-613,-0.187685275,130,0.03980275
2023-10-26 13:33:40.743,17657,229220,194605,4487,1.373807225,85,0.026024875
2023-10-26 13:33:40.743,17658,229219,194589,3145,0.962920375,78,0.02388165
2023-10-26 13:33:40.743,17659,229224,194611,-2503,-0.766356025,195,0.059704125
2023-10-26 13:33:40.743,17660,229232,194592,-1043,-0.319340525,315,0.096445125
2023-10-26 13:33:40.773,17661,229229,194601,4331,1.326043925,353,0.108079775
2023-10-26 13:33:40.773,17662,229233,194601,2772,0.8487171,410,0.12553175
2023-10-26 13:33:40.773,17663,229238,194605,-2347,-0.718592725,551,0.168702425
2023-10-26 13:33:40.773,17664,229228,194595,-1110,-0.33985425,649,0.198707575
2023-10-26 13:33:40.773,17665,229241,194624,4182,1.28042385,631,0.193196425
2023-10-26 13:33:40.803,17666,229234,194604,3070,0.93995725,629,0.192584075
2023-10-26 13:33:40.803,17667,229228,194584,-2393,-0.732676775,734,0.22473245
2023-10-26 13:33:40.803,17668,229250,194594,-1367,-0.418541225,824,0.2522882
2023-10-26 13:33:40.803,17669,229213,194585,3809,1.166220575,803,0.245858525
2023-10-26 13:33:40.833,17670,229212,194579,2837,0.868618475,784,0.2400412
2023-10-26 13:33:40.833,17671,229209,194574,-2297,-0.703283975,857,0.262391975
2023-10-26 13:33:40.833,17672,229206,194572,-1296,-0.3968028,918,0.28106865
2023-10-26 13:33:40.833,17673,229199,194568,3874,1.18612195,891,0.272801925
2023-10-26 13:33:40.833,17674,229206,194570,3040,0.930772,894,0.27372045
2023-10-26 13:33:40.833,17675,229193,194575,-2306,-0.70603955,1004,0.3073997
2023-10-26 13:33:40.863,17676,229199,194562,-1175,-0.359755625,1085,0.332199875
2023-10-26 13:33:40.863,17677,229188,194546,4120,1.261441,1042,0.31903435
2023-10-26 13:33:40.863,17678,229185,194540,3023,0.925567025,996,0.3049503
2023-10-26 13:33:40.863,17679,229145,194541,-2290,-0.70114075,1048,0.3208714
2023-10-26 13:33:40.863,17680,229156,194527,-1106,-0.33862955,1089,0.333424575
2023-10-26 13:33:40.863,17681,229156,194521,4142,1.26817685,1024,0.3135232
2023-10-26 13:33:40.893,17682,229158,194517,3204,0.9809847,965,0.295458875
2023-10-26 13:33:40.893,17683,229126,194512,-2408,-0.7372694,1005,0.307705875
2023-10-26 13:33:40.893,17684,229135,194503,-1603,-0.490798525,1031,0.315666425
2023-10-26 13:33:40.893,17685,229113,194496,3792,1.1610156,946,0.28964155
2023-10-26 13:33:40.923,17686,229107,194501,3101,0.949448675,867,0.265453725
2023-10-26 13:33:40.923,17687,229102,194511,-2307,-0.706345725,902,0.27616985
2023-10-26 13:33:40.923,17688,229105,194504,-1252,-0.3833311,941,0.288110675
2023-10-26 13:33:40.923,17689,229114,194506,4055,1.241539625,874,0.26759695
2023-10-26 13:33:40.923,17690,229119,194504,3244,0.9932317,803,0.245858525
2023-10-26 13:33:40.923,17691,229125,194508,-2327,-0.712469225,834,0.25534995
2023-10-26 13:33:40.963,17692,229145,194503,-1402,-0.42925735,865,0.264841375
2023-10-26 13:33:40.963,17693,229142,194522,3898,1.19347015,804,0.2461647
2023-10-26 13:33:40.963,17694,229127,194513,3071,0.940263425,756,0.2314683
2023-10-26 13:33:40.963,17695,229134,194516,-2430,-0.74400525,818,0.25045115
2023-10-26 13:33:40.963,17696,229121,194509,-1782,-0.54560385,884,0.2706587
2023-10-26 13:33:40.963,17697,229124,194493,3558,1.08937065,851,0.260554925
2023-10-26 13:33:40.993,17698,229111,194502,3137,0.960470975,817,0.250144975
2023-10-26 13:33:40.993,17699,229109,194473,-2303,-0.705121025,878,0.26882165
2023-10-26 13:33:40.993,17700,229075,194494,-1522,-0.46599835,935,0.286273625
2023-10-26 13:33:40.993,17701,229091,194496,3598,1.10161765,888,0.2718834
2023-10-26 13:33:40.993,17702,229084,194473,2993,0.916381775,841,0.257493175
2023-10-26 13:33:40.993,17703,229060,194460,-2220,-0.6797085,895,0.274026625
2023-10-26 13:33:40.993,17704,229035,194460,-1894,-0.57989545,946,0.28964155
2023-10-26 13:33:41.023,17705,229053,194445,3463,1.060284025,888,0.2718834
2023-10-26 13:33:41.023,17706,229040,194457,3168,0.9699624,826,0.25290055
2023-10-26 13:33:41.023,17707,229030,194440,-2106,-0.64480455,866,0.26514755
2023-10-26 13:33:41.023,17708,229025,194437,-1819,-0.556932325,907,0.277700725
2023-10-26 13:33:41.023,17709,228997,194443,3480,1.065489,848,0.2596364
2023-10-26 13:33:41.023,17710,228996,194415,3759,1.150911825,792,0.2424906
2023-10-26 13:33:41.023,17711,228997,194416,-1469,-0.449771075,843,0.258105525
2023-10-26 13:33:41.053,17712,228991,194423,-986,-0.30188855,897,0.274638975
2023-10-26 13:33:41.053,17713,228973,194398,4657,1.425856975,840,0.257187
2023-10-26 13:33:41.053,17714,228987,194412,3789,1.160097075,770,0.23575475
2023-10-26 13:33:41.053,17715,228991,194399,-2744,-0.8401442,800,0.24494
2023-10-26 13:33:41.083,17716,228988,194411,-3265,-0.999661375,835,0.255656125
2023-10-26 13:33:41.083,17717,228979,194394,2255,0.690424625,771,0.236060925
2023-10-26 13:33:41.083,17718,228984,194407,2597,0.795136475,702,0.21493485
2023-10-26 13:33:41.083,17719,228989,194420,-2498,-0.76482515,735,0.225038625
2023-10-26 13:33:41.083,17720,229027,194424,-2504,-0.7666622,773,0.236673275
2023-10-26 13:33:41.083,17721,229013,194430,2961,0.906584175,703,0.215241025
2023-10-26 13:33:41.083,17722,229052,194429,3236,0.9907823,625,0.191359375
2023-10-26 13:33:41.113,17723,229043,194443,-2440,-0.747067,655,0.200544625
2023-10-26 13:33:41.113,17724,229050,194435,-2128,-0.6515404,707,0.216465725
2023-10-26 13:33:41.113,17725,229056,194461,2945,0.901685375,662,0.20268785
2023-10-26 13:33:41.113,17726,229056,194449,3060,0.9368955,612,0.1873791
2023-10-26 13:33:41.113,17727,229050,194437,-2398,-0.73420765,673,0.206055775
2023-10-26 13:33:41.113,17728,229060,194446,-2615,-0.800647625,758,0.23208065
2023-10-26 13:33:41.113,17729,229058,194438,2733,0.836776275,759,0.232386825
2023-10-26 13:33:41.143,17730,229031,194407,3545,1.085390375,767,0.234836225
2023-10-26 13:33:41.143,17731,229030,194410,-2327,-0.712469225,878,0.26882165
2023-10-26 13:33:41.143,17732,229036,194413,-2450,-0.75012875,977,0.299132975
2023-10-26 13:33:41.143,17733,229005,194402,2873,0.879640775,935,0.286273625
2023-10-26 13:33:41.143,17734,229013,194389,3185,0.975167375,846,0.25902405
2023-10-26 13:33:41.173,17735,228995,194373,-2191,-0.670829425,838,0.25657465
2023-10-26 13:33:41.173,17736,228986,194380,-2008,-0.6147994,835,0.255656125
2023-10-26 13:33:41.173,17737,228969,194371,3015,0.923117625,698,0.21371015
2023-10-26 13:33:41.173,17738,228984,194385,3280,1.004254,498,0.15247515
2023-10-26 13:33:41.173,17739,228961,194365,-1899,-0.581426325,508,0.1555369
2023-10-26 13:33:41.173,17740,228964,194377,-2414,-0.73910645,459,0.140534325
2023-10-26 13:33:41.173,17741,228988,194364,3072,0.9405696,335,0.102568625
2023-10-26 13:33:41.213,17742,228963,194378,3844,1.1769367,199,0.060928825
2023-10-26 13:33:41.213,17743,228965,194374,-1673,-0.512230775,196,0.0600103
2023-10-26 13:33:41.213,17744,228962,194367,-2063,-0.631639025,242,0.07409435
2023-10-26 13:33:41.213,17745,228965,194367,2811,0.860657925,202,0.06184735
2023-10-26 13:33:41.213,17746,228930,194340,3125,0.956796875,148,0.0453139
2023-10-26 13:33:41.213,17747,228944,194342,-2426,-0.74278055,206,0.06307205
2023-10-26 13:33:41.243,17748,228958,194327,-2711,-0.830040425,301,0.092158675
2023-10-26 13:33:41.243,17749,228913,194333,2683,0.821467525,307,0.093995725
2023-10-26 13:33:41.243,17750,228911,194320,3374,1.03303445,291,0.089096925
2023-10-26 13:33:41.243,17751,228889,194317,-2053,-0.628577275,361,0.110529175
2023-10-26 13:33:41.243,17752,228898,194320,-2723,-0.833714525,432,0.1322676
2023-10-26 13:33:41.243,17753,228897,194306,2497,0.764518975,386,0.11818355
2023-10-26 13:33:41.243,17754,228875,194297,3460,1.0593655,312,0.0955266
2023-10-26 13:33:41.243,17755,228875,194293,-2069,-0.633476075,343,0.105018025
2023-10-26 13:33:41.273,17756,228876,194300,-2653,-0.812282275,417,0.127674975
2023-10-26 13:33:41.273,17757,228897,194296,2703,0.827591025,410,0.12553175
2023-10-26 13:33:41.273,17758,228888,194313,3780,1.1573415,386,0.11818355
2023-10-26 13:33:41.273,17759,228918,194297,-1586,-0.48559355,467,0.142983725
2023-10-26 13:33:41.273,17760,228907,194314,-2402,-0.73543235,573,0.175438275
2023-10-26 13:33:41.273,17761,228952,194327,2666,0.81626255,570,0.17451975
2023-10-26 13:33:41.273,17762,228950,194338,3965,1.213983875,528,0.1616604
2023-10-26 13:33:41.303,17763,228948,194344,-1580,-0.4837565,568,0.1739074
2023-10-26 13:33:41.303,17764,228991,194344,-2502,-0.76604985,620,0.1898285
2023-10-26 13:33:41.303,17765,228976,194354,3159,0.967206825,567,0.173601225
2023-10-26 13:33:41.303,17766,229005,194360,4244,1.2994067,490,0.15002575
2023-10-26 13:33:41.303,17767,228987,194360,-1232,-0.3772076,508,0.1555369
2023-10-26 13:33:41.333,17768,229009,194348,-2174,-0.66562445,547,0.167477725
2023-10-26 13:33:41.333,17769,228992,194356,2885,0.883314875,477,0.146045475
2023-10-26 13:33:41.333,17770,228994,194360,4320,1.322676,368,0.1126724
2023-10-26 13:33:41.333,17771,228992,194349,-1003,-0.307093525,357,0.109304475
2023-10-26 13:33:41.333,17772,228997,194360,-2269,-0.694711075,383,0.117265025
2023-10-26 13:33:41.333,17773,228977,194363,2715,0.831265125,323,0.098894525
2023-10-26 13:33:41.333,17774,228962,194345,4215,1.290527625,248,0.0759314
2023-10-26 13:33:41.363,17775,228946,194335,-1059,-0.324239325,288,0.0881784
2023-10-26 13:33:41.363,17776,228947,194322,-2132,-0.6527651,369,0.112978575
2023-10-26 13:33:41.363,17777,228920,194330,3100,0.9491425,358,0.10961065
2023-10-26 13:33:41.363,17778,228904,194318,4649,1.423407575,321,0.098282175
2023-10-26 13:33:41.363,17779,228902,194309,-860,-0.2633105,393,0.120326775
2023-10-26 13:33:41.363,17780,228915,194300,-1957,-0.599184475,509,0.155843075
2023-10-26 13:33:41.393,17781,228898,194305,3352,1.0262986,527,0.161354225
2023-10-26 13:33:41.393,17782,228889,194295,4586,1.40411855,508,0.1555369
2023-10-26 13:33:41.393,17783,228876,194297,-772,-0.2363671,583,0.178500025
2023-10-26 13:33:41.393,17784,228880,194276,-1801,-0.551421175,692,0.2118731
2023-10-26 13:33:41.393,17785,228866,194287,3315,1.014970125,703,0.215241025
2023-10-26 13:33:41.393,17786,228859,194282,5094,1.55965545,678,0.20758665
2023-10-26 13:33:41.393,17787,228859,194284,-126,-0.03857805,754,0.23085595
2023-10-26 13:33:41.393,17788,228883,194291,-1658,-0.50763815,872,0.2669846
2023-10-26 13:33:41.393,17789,228883,194264,3544,1.0850842,887,0.271577225
2023-10-26 13:33:41.423,17790,228864,194296,5294,1.62089045,847,0.259330225
2023-10-26 13:33:41.423,17791,228840,194254,-10,-0.00306175,891,0.272801925
2023-10-26 13:33:41.423,17792,228867,194264,-1419,-0.434462325,970,0.29698975
2023-10-26 13:33:41.423,17793,228857,194265,3621,1.108659675,954,0.29209095
2023-10-26 13:33:41.423,17794,228873,194269,5872,1.7978596,903,0.276476025
2023-10-26 13:33:41.423,17795,228849,194269,920,0.281681,954,0.29209095
2023-10-26 13:33:41.423,17796,228869,194283,-270,-0.08266725,1050,0.32148375
2023-10-26 13:33:41.463,17797,228862,194291,4712,1.4426966,1052,0.3220961
2023-10-26 13:33:41.463,17798,228892,194287,6742,2.06423185,1010,0.30923675
2023-10-26 13:33:41.463,17799,228876,194290,1041,0.318728175,1057,0.323626975
2023-10-26 13:33:41.463,17800,228901,194292,-733,-0.224426275,1149,0.351795075
2023-10-26 13:33:41.463,17801,228915,194292,4368,1.3373724,1158,0.35455065
2023-10-26 13:33:41.493,17802,228912,194294,6391,1.956764425,1135,0.347508625
2023-10-26 13:33:41.493,17803,228911,194303,1079,0.330362825,1215,0.372002625
2023-10-26 13:33:41.493,17804,228942,194303,-827,-0.253206725,1341,0.410580675
2023-10-26 13:33:41.493,17805,228917,194296,4180,1.2798115,1371,0.419765925
2023-10-26 13:33:41.493,17806,228935,194295,6209,1.901040575,1353,0.414254775
2023-10-26 13:33:41.493,17807,228917,194301,1048,0.3208714,1430,0.43783025
2023-10-26 13:33:41.493,17808,228905,194303,-737,-0.225650975,1555,0.476102125
2023-10-26 13:33:41.493,17809,228931,194307,4160,1.273688,1586,0.48559355
2023-10-26 13:33:41.523,17810,228911,194284,6288,1.9252284,1574,0.48191945
2023-10-26 13:33:41.523,17811,228913,194274,1045,0.319952875,1664,0.5094752
2023-10-26 13:33:41.523,17812,228905,194277,-906,-0.27739455,1815,0.555707625
2023-10-26 13:33:41.523,17813,228883,194260,4212,1.2896091,1890,0.57867075
2023-10-26 13:33:41.523,17814,228868,194248,6232,1.9080826,1930,0.59091775
2023-10-26 13:33:41.523,17815,228859,194249,864,0.2645352,2074,0.63500695
2023-10-26 13:33:41.553,17816,228857,194239,-1273,-0.389760775,2272,0.6956296
2023-10-26 13:33:41.553,17817,228859,194233,4090,1.25225575,2375,0.727165625
2023-10-26 13:33:41.553,17818,228845,194234,6459,1.977584325,2420,0.7409435
2023-10-26 13:33:41.553,17819,228825,194230,1035,0.316891125,2545,0.779215375
2023-10-26 13:33:41.553,17820,228838,194217,-797,-0.244021475,2705,0.828203375
2023-10-26 13:33:41.583,17821,228844,194215,3954,1.21061595,2756,0.8438183
2023-10-26 13:33:41.583,17822,228858,194235,6433,1.969623775,2735,0.837388625
2023-10-26 13:33:41.583,17823,228850,194233,1194,0.36557295,2784,0.8523912
2023-10-26 13:33:41.583,17824,228848,194219,-689,-0.210954575,2867,0.877803725
2023-10-26 13:33:41.583,17825,228839,194227,4178,1.27919915,2847,0.871680225
2023-10-26 13:33:41.583,17826,228847,194243,6513,1.994117775,2761,0.845349175
2023-10-26 13:33:41.613,17827,228851,194219,1562,0.47824535,2756,0.8438183
2023-10-26 13:33:41.613,17828,228860,194222,-620,-0.1898285,2798,0.85667765
2023-10-26 13:33:41.613,17829,228852,194238,4200,1.285935,2746,0.84075655
2023-10-26 13:33:41.613,17830,228878,194228,6604,2.0219797,2642,0.80891435
2023-10-26 13:33:41.613,17831,228852,194237,1539,0.471203325,2634,0.80646495
2023-10-26 13:33:41.613,17832,228861,194236,-878,-0.26882165,2692,0.8242231
2023-10-26 13:33:41.643,17833,228860,194223,3741,1.145400675,2668,0.8168749
2023-10-26 13:33:41.643,17834,228882,194230,6670,2.04218725,2595,0.794524125
2023-10-26 13:33:41.643,17835,228867,194229,1965,0.601633875,2612,0.7997291
2023-10-26 13:33:41.643,17836,228865,194231,-685,-0.209729875,2677,0.819630475
2023-10-26 13:33:41.643,17837,228855,194230,3817,1.168669975,2649,0.811057575
2023-10-26 13:33:41.643,17838,228855,194217,6888,2.1089334,2564,0.7850327
2023-10-26 13:33:41.643,17839,228841,194212,1919,0.587549825,2572,0.7874821
2023-10-26 13:33:41.643,17840,228847,194214,-1052,-0.3220961,2648,0.8107514
2023-10-26 13:33:41.673,17841,228820,194191,4016,1.2295988,2646,0.81013905
2023-10-26 13:33:41.673,17842,228781,194191,7009,2.145980575,2593,0.793911775
2023-10-26 13:33:41.673,17843,228799,194178,1880,0.575609,2632,0.8058526
2023-10-26 13:33:41.673,17844,228776,194168,-938,-0.28719215,2736,0.8376948
2023-10-26 13:33:41.673,17845,228770,194153,3375,1.033340625,2753,0.842899775
2023-10-26 13:33:41.673,17846,228735,194140,6612,2.0244291,2708,0.8291219
2023-10-26 13:33:41.673,17847,228711,194140,1933,0.591836275,2749,0.841675075
2023-10-26 13:33:41.713,17848,228741,194143,-1055,-0.323014625,2852,0.8732111
2023-10-26 13:33:41.713,17849,228728,194140,3510,1.07467425,2866,0.87749755
2023-10-26 13:33:41.713,17850,228705,194129,6515,1.994730125,2810,0.86035175
2023-10-26 13:33:41.713,17851,228729,194143,1903,0.582651025,2834,0.86769995
2023-10-26 13:33:41.713,17852,228712,194125,-1106,-0.33862955,2918,0.89341865
2023-10-26 13:33:41.743,17853,228734,194137,3423,1.048037025,2914,0.89219395
2023-10-26 13:33:41.743,17854,228703,194118,6354,1.94543595,2843,0.870455525
2023-10-26 13:33:41.743,17855,228711,194147,1868,0.5719349,2859,0.875354325
2023-10-26 13:33:41.743,17856,228706,194138,-794,-0.24310295,2941,0.900460675
2023-10-26 13:33:41.743,17857,228717,194118,3556,1.0887583,2937,0.899235975
2023-10-26 13:33:41.743,17858,228753,194119,6624,2.0281032,2867,0.877803725
2023-10-26 13:33:41.743,17859,228701,194118,1860,0.5694855,2885,0.883314875
2023-10-26 13:33:41.773,17860,228722,194105,-1213,-0.371390275,2970,0.90933975
2023-10-26 13:33:41.773,17861,228692,194099,3513,1.075592775,2970,0.90933975
2023-10-26 13:33:41.773,17862,228683,194114,6710,2.05443425,2893,0.885764275
2023-10-26 13:33:41.773,17863,228688,194089,2105,0.644498375,2889,0.884539575
2023-10-26 13:33:41.773,17864,228680,194111,-1374,-0.42068445,2954,0.90444095
2023-10-26 13:33:41.773,17865,228675,194083,3013,0.922505275,2939,0.899848325
2023-10-26 13:33:41.803,17866,228700,194101,6439,1.971460825,2848,0.8719864
2023-10-26 13:33:41.803,17867,228657,194074,1631,0.499371425,2828,0.8658629
2023-10-26 13:33:41.803,17868,228686,194078,-1473,-0.450995775,2877,0.880865475
2023-10-26 13:33:41.803,17869,228672,194065,2918,0.89341865,2846,0.87137405
2023-10-26 13:33:41.803,17870,228659,194067,6385,1.954927375,2739,0.838613325
2023-10-26 13:33:41.833,17871,228672,194064,1864,0.5707102,2711,0.830040425
2023-10-26 13:33:41.833,17872,228668,194077,-1485,-0.454669875,2765,0.846573875
2023-10-26 13:33:41.833,17873,228670,194072,2773,0.849023275,2756,0.8438183
2023-10-26 13:33:41.833,17874,228666,194081,6095,1.866136625,2682,0.82116135
2023-10-26 13:33:41.833,17875,228655,194064,1477,0.452220475,2682,0.82116135
2023-10-26 13:33:41.833,17876,228671,194063,-1747,-0.534887725,2751,0.842287425
2023-10-26 13:33:41.833,17877,228672,194072,2148,0.6576639,2747,0.841062725
2023-10-26 13:33:41.863,17878,228684,194070,6060,1.8554205,2678,0.81993665
2023-10-26 13:33:41.863,17879,228689,194072,1743,0.533663025,2690,0.82361075
2023-10-26 13:33:41.863,17880,228677,194063,-1369,-0.419153575,2775,0.849635625
2023-10-26 13:33:41.863,17881,228670,194066,2934,0.89831745,2777,0.850247975
2023-10-26 13:33:41.863,17882,228655,194047,6863,2.101279025,2696,0.8254478
2023-10-26 13:33:41.863,17883,228661,194045,2715,0.831265125,2681,0.820855175
2023-10-26 13:33:41.893,17884,228664,194067,-1082,-0.33128135,2732,0.8364701
2023-10-26 13:33:41.893,17885,228644,194027,2384,0.7299212,2702,0.82728485
2023-10-26 13:33:41.893,17886,228645,194046,5361,1.641404175,2596,0.7948303
2023-10-26 13:33:41.893,17887,228627,194017,825,0.252594375,2566,0.78564505
2023-10-26 13:33:41.893,17888,228638,194032,-2586,-0.79176855,2611,0.799422925
2023-10-26 13:33:41.923,17889,228612,194022,1702,0.52110985,2577,0.789012975
2023-10-26 13:33:41.923,17890,228612,194019,6008,1.8394994,2458,0.75257815
2023-10-26 13:33:41.923,17891,228597,193997,2185,0.668992375,2409,0.737575575
2023-10-26 13:33:41.923,17892,228597,194018,-1067,-0.326688725,2443,0.747985525
2023-10-26 13:33:41.923,17893,228606,194008,2691,0.823916925,2410,0.73788175
2023-10-26 13:33:41.923,17894,228610,194007,6600,2.020755,2297,0.703283975
2023-10-26 13:33:41.963,17895,228576,193992,2610,0.79911675,2254,0.69011845
2023-10-26 13:33:41.963,17896,228591,194008,-1175,-0.359755625,2293,0.702059275
2023-10-26 13:33:41.963,17897,228568,193993,2942,0.90076685,2269,0.694711075
2023-10-26 13:33:41.963,17898,228590,193995,6536,2.0011598,2179,0.667155325
2023-10-26 13:33:41.963,17899,228594,193985,2194,0.67174795,2179,0.667155325
2023-10-26 13:33:41.963,17900,228569,193976,-1258,-0.38516815,2285,0.699609875
2023-10-26 13:33:41.993,17901,228588,193985,2822,0.86402585,2335,0.714918625
2023-10-26 13:33:41.993,17902,228591,193989,6679,2.044942825,2301,0.704508675
2023-10-26 13:33:41.993,17903,228568,194000,2554,0.78197095,2311,0.707570425
2023-10-26 13:33:41.993,17904,228589,193977,-1350,-0.41333625,2374,0.72685945
2023-10-26 13:33:41.993,17905,228585,193972,2518,0.77094865,2349,0.719205075
2023-10-26 13:33:41.993,17906,228603,193982,6953,2.128834775,2230,0.68277025
2023-10-26 13:33:41.993,17907,228576,193986,3114,0.95342895,2173,0.665318275
2023-10-26 13:33:42.023,17908,228618,193985,-1139,-0.348733325,2204,0.6748097
2023-10-26 13:33:42.023,17909,228619,193996,2818,0.86280115,2178,0.66684915
2023-10-26 13:33:42.023,17910,228612,193981,6975,2.135570625,2075,0.635313125
2023-10-26 13:33:42.023,17911,228609,193985,3187,0.975779725,2043,0.625515525
2023-10-26 13:33:42.023,17912,228623,194001,-833,-0.255043775,2110,0.64602925
2023-10-26 13:33:42.023,17913,228609,193994,2766,0.84688005,2140,0.6552145
2023-10-26 13:33:42.023,17914,228615,193995,7240,2.216707,2118,0.64847865
2023-10-26 13:33:42.053,17915,228595,193978,3793,1.161321775,2183,0.668380025
2023-10-26 13:33:42.053,17916,228576,193975,-265,-0.081136375,2339,0.716143325
2023-10-26 13:33:42.053,17917,228564,193941,3271,1.001498425,2436,0.7458423
2023-10-26 13:33:42.053,17918,228545,193944,7466,2.28590255,2451,0.750434925
2023-10-26 13:33:42.053,17919,228541,193940,3777,1.156422975,2524,0.7727857
2023-10-26 13:33:42.053,17920,228546,193941,-474,-0.14512695,2669,0.817181075
2023-10-26 13:33:42.085,17921,228531,193938,2814,0.86157645,2732,0.8364701
2023-10-26 13:33:42.085,17922,228540,193934,6839,2.093930825,2683,0.821467525
2023-10-26 13:33:42.085,17923,228543,193903,3383,1.035790025,2674,0.81871195
2023-10-26 13:33:42.085,17924,228527,193933,-1010,-0.30923675,2737,0.838000975
2023-10-26 13:33:42.085,17925,228550,193914,2340,0.7164495,2732,0.8364701
2023-10-26 13:33:42.085,17926,228565,193924,6806,2.08382705,2651,0.811669925
2023-10-26 13:33:42.085,17927,228557,193927,2922,0.89464335,2657,0.813506975
2023-10-26 13:33:42.118,17928,228574,193928,-1356,-0.4151733,2774,0.84932945
2023-10-26 13:33:42.119,17929,228580,193906,2073,0.634700775,2842,0.87014935
2023-10-26 13:33:42.119,17930,228592,193927,6298,1.92829015,2819,0.863107325
2023-10-26 13:33:42.119,17931,228587,193932,2841,0.869843175,2852,0.8732111
2023-10-26 13:33:42.119,17932,228584,193915,-1546,-0.47334655,2979,0.912095325
2023-10-26 13:33:42.119,17933,228592,193905,1873,0.573465775,3054,0.93505845
2023-10-26 13:33:42.154,17934,228577,193911,6292,1.9264531,3038,0.93015965
2023-10-26 13:33:42.154,17935,228568,193909,2682,0.82116135,3079,0.942712825
2023-10-26 13:33:42.154,17936,228605,193912,-1637,-0.501208475,3217,0.984964975
2023-10-26 13:33:42.154,17937,228587,193908,1628,0.4984529,3303,1.011296025
2023-10-26 13:33:42.154,17938,228595,193908,6633,2.030858775,3287,1.006397225
2023-10-26 13:33:42.174,17939,228586,193905,3173,0.971493275,3305,1.011908375
2023-10-26 13:33:42.174,17940,228602,193906,-1127,-0.345059225,3392,1.0385456
2023-10-26 13:33:42.174,17941,228599,193906,1769,0.541623575,3406,1.04283205
2023-10-26 13:33:42.174,17942,228598,193903,6278,1.92216665,3309,1.013133075
2023-10-26 13:33:42.174,17943,228602,193910,3191,0.977004425,3245,0.993537875
2023-10-26 13:33:42.174,17944,228612,193892,-1199,-0.367103825,3257,0.997211975
2023-10-26 13:33:42.174,17945,228595,193911,1665,0.509781375,3205,0.981290875
2023-10-26 13:33:42.220,17946,228588,193909,6296,1.9276778,3053,0.934752275
2023-10-26 13:33:42.220,17947,228586,193885,3322,1.01711335,2945,0.901685375
2023-10-26 13:33:42.220,17948,228560,193881,-1280,-0.391904,2922,0.89464335
2023-10-26 13:33:42.220,17949,228545,193877,1424,0.4359932,2847,0.871680225
2023-10-26 13:33:42.220,17950,228552,193879,6258,1.91604315,2686,0.82238605
2023-10-26 13:33:42.220,17951,228536,193868,3581,1.096412675,2583,0.790850025
2023-10-26 13:33:42.265,17952,228541,193891,-1323,-0.405069525,2583,0.790850025
2023-10-26 13:33:42.265,17953,228551,193877,1597,0.488961475,2544,0.7789092
2023-10-26 13:33:42.265,17954,228558,193884,6062,1.85603285,2424,0.7421682
2023-10-26 13:33:42.265,17955,228542,193887,3347,1.024767725,2371,0.725940925
2023-10-26 13:33:42.265,17956,228538,193865,-1171,-0.358530925,2430,0.74400525
2023-10-26 13:33:42.297,17957,228538,193874,1620,0.4960035,2450,0.75012875
2023-10-26 13:33:42.297,17958,228541,193892,6195,1.896754125,2377,0.727777975
2023-10-26 13:33:42.297,17959,228581,193876,3351,1.025992425,2353,0.720429775
2023-10-26 13:33:42.297,17960,228559,193887,-1445,-0.442422875,2432,0.7446176
2023-10-26 13:33:42.297,17961,228554,193893,1233,0.377513775,2473,0.757170775
2023-10-26 13:33:42.297,17962,228545,193886,6185,1.893692375,2422,0.74155585
2023-10-26 13:33:42.318,17963,228537,193885,3410,1.04405675,2418,0.74033115
2023-10-26 13:33:42.318,17964,228543,193903,-1358,-0.41578565,2514,0.76972395
2023-10-26 13:33:42.318,17965,228543,193880,1218,0.37292115,2562,0.78442035
2023-10-26 13:33:42.318,17966,228542,193895,6018,1.84256115,2497,0.764518975
2023-10-26 13:33:42.318,17967,228538,193868,3525,1.079266875,2465,0.754721375
2023-10-26 13:33:42.318,17968,228543,193885,-1408,-0.4310944,2529,0.774316575
2023-10-26 13:33:42.348,17969,228554,193880,1300,0.3980275,2555,0.782277125
2023-10-26 13:33:42.348,17970,228562,193895,6179,1.891855325,2484,0.7605387
2023-10-26 13:33:42.348,17971,228541,193903,3447,1.055385225,2449,0.749822575
2023-10-26 13:33:42.348,17972,228548,193918,-1724,-0.5278457,2507,0.767580725
2023-10-26 13:33:42.348,17973,228589,193903,974,0.29821445,2530,0.77462275
2023-10-26 13:33:42.348,17974,228596,193924,6057,1.854501975,2461,0.753496675
2023-10-26 13:33:42.348,17975,228596,193921,3649,1.117232575,2430,0.74400525
2023-10-26 13:33:42.385,17976,228580,193927,-1254,-0.38394345,2496,0.7642128
2023-10-26 13:33:42.386,17977,228607,193925,923,0.282599525,2524,0.7727857
2023-10-26 13:33:42.386,17978,228620,193903,5751,1.760812425,2450,0.75012875
2023-10-26 13:33:42.386,17979,228611,193901,3647,1.116620225,2407,0.736963225
2023-10-26 13:33:42.386,17980,228598,193918,-1138,-0.34842715,2461,0.753496675
2023-10-26 13:33:42.386,17981,228595,193892,945,0.289335375,2480,0.759314
2023-10-26 13:33:42.386,17982,228593,193915,5800,1.775815,2403,0.735738525
2023-10-26 13:33:42.420,17983,228606,193888,3414,1.04528145,2360,0.722573
2023-10-26 13:33:42.420,17984,228586,193886,-1629,-0.498759075,2414,0.73910645
2023-10-26 13:33:42.420,17985,228585,193896,654,0.20023845,2431,0.744311425
2023-10-26 13:33:42.420,17986,228559,193873,5674,1.73723695,2353,0.720429775
2023-10-26 13:33:42.420,17987,228554,193863,3386,1.03670855,2314,0.70848895
2023-10-26 13:33:42.420,17988,228531,193842,-1563,-0.478551525,2377,0.727777975
2023-10-26 13:33:42.420,17989,228538,193850,842,0.25779935,2404,0.7360447
2023-10-26 13:33:42.420,17990,228553,193854,5646,1.72866405,2327,0.712469225
2023-10-26 13:33:42.420,17991,228538,193843,3614,1.10651645,2282,0.69869135
2023-10-26 13:33:42.440,17992,228543,193852,-1218,-0.37292115,2342,0.71706185
2023-10-26 13:33:42.440,17993,228543,193840,977,0.299132975,2374,0.72685945
2023-10-26 13:33:42.440,17994,228565,193836,5841,1.788368175,2303,0.705121025
2023-10-26 13:33:42.440,17995,228556,193834,3858,1.18122315,2258,0.69134315
2023-10-26 13:33:42.440,17996,228555,193835,-958,-0.29331565,2316,0.7091013
2023-10-26 13:33:42.440,17997,228571,193823,1099,0.336486325,2350,0.71951125
2023-10-26 13:33:42.440,17998,228564,193847,6367,1.949416225,2282,0.69869135
2023-10-26 13:33:42.487,17999,228583,193829,4730,1.44820775,2241,0.686138175
2023-10-26 13:33:42.487,18000,228577,193838,-357,-0.109304475,2300,0.7042025
2023-10-26 13:33:42.487,18001,228589,193825,2013,0.616330275,2328,0.7127754
2023-10-26 13:33:42.487,18002,228604,193845,6973,2.134958275,2247,0.687975225
2023-10-26 13:33:42.487,18003,228597,193821,5151,1.577107425,2188,0.6699109
2023-10-26 13:33:42.487,18004,228605,193837,-328,-0.1004254,2226,0.68154555
2023-10-26 13:33:42.517,18005,228622,193838,1478,0.45252665,2242,0.68644435
2023-10-26 13:33:42.517,18006,228634,193838,6605,2.022285875,2164,0.6625627
2023-10-26 13:33:42.517,18007,228612,193837,4671,1.430143425,2109,0.645723075
2023-10-26 13:33:42.517,18008,228609,193841,-445,-0.136247875,2150,0.65827625
2023-10-26 13:33:42.517,18009,228602,193814,1362,0.41701035,2173,0.665318275
2023-10-26 13:33:42.517,18010,228603,193798,6404,1.9607447,2105,0.644498375
2023-10-26 13:33:42.517,18011,228548,193795,4727,1.447289225,2074,0.63500695
2023-10-26 13:33:42.517,18012,228539,193770,-665,-0.203606375,2156,0.6601133
2023-10-26 13:33:42.557,18013,228525,193772,1240,0.379657,2227,0.681851725
2023-10-26 13:33:42.557,18014,228484,193754,6445,1.973297875,2206,0.67542205
2023-10-26 13:33:42.557,18015,228481,193751,4904,1.5014822,2220,0.6797085
2023-10-26 13:33:42.557,18016,228469,193727,-428,-0.1310429,2349,0.719205075
2023-10-26 13:33:42.557,18017,228442,193703,1383,0.423440025,2469,0.755946075
2023-10-26 13:33:42.557,18018,228429,193714,7035,2.153941125,2504,0.7666622
2023-10-26 13:33:42.587,18019,228407,193691,5546,1.69804655,2573,0.787788275
2023-10-26 13:33:42.587,18020,228400,193693,-167,-0.051131225,2747,0.841062725
2023-10-26 13:33:42.587,18021,228387,193679,1343,0.411193025,2895,0.886376625
2023-10-26 13:33:42.587,18022,228400,193708,6814,2.08627645,2934,0.89831745
2023-10-26 13:33:42.587,18023,228378,193693,6001,1.837356175,2981,0.912707675
2023-10-26 13:33:42.587,18024,228417,193693,685,0.209729875,3115,0.953735125
2023-10-26 13:33:42.587,18025,228401,193681,2156,0.6601133,3215,0.984352625
2023-10-26 13:33:42.587,18026,228399,193684,7527,2.304579225,3192,0.9773106
2023-10-26 13:33:42.587,18027,228402,193687,6109,1.870423075,3166,0.96935005
2023-10-26 13:33:42.617,18028,228421,193681,753,0.230549775,3224,0.9871082
2023-10-26 13:33:42.617,18029,228407,193678,2161,0.661644175,3247,0.994150225
2023-10-26 13:33:42.617,18030,228409,193689,7401,2.266001175,3153,0.965369775
2023-10-26 13:33:42.617,18031,228408,193681,5852,1.7917361,3070,0.93995725
2023-10-26 13:33:42.617,18032,228401,193693,441,0.135023175,3092,0.9466931
2023-10-26 13:33:42.617,18033,228388,193689,1893,0.579589275,3103,0.950061025
2023-10-26 13:33:42.617,18034,228416,193702,7133,2.183946275,3020,0.9246485
2023-10-26 13:33:42.617,18035,228415,193694,5726,1.75315805,2971,0.909645925
2023-10-26 13:33:42.617,18036,228430,193689,-41,-0.012553175,3047,0.932915225
2023-10-26 13:33:42.647,18037,228419,193691,1235,0.378126125,3124,0.9564907
2023-10-26 13:33:42.647,18038,228410,193682,6831,2.091481425,3105,0.950673375
2023-10-26 13:33:42.647,18039,228408,193656,5863,1.795104025,3109,0.951898075
2023-10-26 13:33:42.647,18040,228410,193685,74,0.02265695,3234,0.99016995
2023-10-26 13:33:42.647,18041,228408,193658,1211,0.370777925,3359,1.028441825
2023-10-26 13:33:42.677,18042,228379,193658,6978,2.13648915,3383,1.035790025
2023-10-26 13:33:42.677,18043,228362,193637,6021,1.843479675,3419,1.046812325
2023-10-26 13:33:42.677,18044,228351,193641,-24,-0.0073482,3566,1.09182005
2023-10-26 13:33:42.677,18045,228356,193635,1283,0.392822525,3707,1.134990725
2023-10-26 13:33:42.677,18046,228355,193636,6914,2.11689395,3741,1.145400675
2023-10-26 13:33:42.677,18047,228376,193643,6235,1.909001125,3775,1.155810625
2023-10-26 13:33:42.677,18048,228378,193645,896,0.2743328,3902,1.19469485
2023-10-26 13:33:42.707,18049,228374,193644,1930,0.59091775,4010,1.22776175
2023-10-26 13:33:42.707,18050,228372,193647,7473,2.288045775,3996,1.2234753
2023-10-26 13:33:42.707,18051,228398,193636,6999,2.142918825,3964,1.2136777
2023-10-26 13:33:42.707,18052,228416,193645,1241,0.379963175,4013,1.228680275
2023-10-26 13:33:42.707,18053,228431,193672,1043,0.319340525,4036,1.2357223
2023-10-26 13:33:42.707,18054,228468,193657,5753,1.761424775,3940,1.2063295
2023-10-26 13:33:42.737,18055,228438,193640,4621,1.414834675,3845,1.177242875
2023-10-26 13:33:42.737,18056,228457,193675,-1293,-0.395884275,3851,1.179079925
2023-10-26 13:33:42.737,18057,228439,193659,-111,-0.033985425,3840,1.175712
2023-10-26 13:33:42.737,18058,228463,193665,5642,1.72743935,3713,1.136827775
2023-10-26 13:33:42.737,18059,228456,193686,5487,1.679982225,3599,1.101923825
2023-10-26 13:33:42.767,18060,228475,193670,42,0.01285935,3608,1.1046794
2023-10-26 13:33:42.767,18061,228492,193686,1159,0.354856825,3623,1.109272025
2023-10-26 13:33:42.767,18062,228462,193687,6815,2.086582625,3542,1.08447185
2023-10-26 13:33:42.767,18063,228481,193679,6167,1.888181225,3479,1.065182825
2023-10-26 13:33:42.767,18064,228493,193673,539,0.165028325,3545,1.085390375
2023-10-26 13:33:42.767,18065,228480,193692,1478,0.45252665,3627,1.110496725
2023-10-26 13:33:42.807,18066,228474,193670,7061,2.161901675,3611,1.105597925
2023-10-26 13:33:42.807,18067,228466,193682,6859,2.100054325,3604,1.1034547
2023-10-26 13:33:42.807,18068,228486,193680,1239,0.379350825,3723,1.139889525
2023-10-26 13:33:42.807,18069,228467,193651,1605,0.491410875,3859,1.181529325
2023-10-26 13:33:42.807,18070,228450,193648,6764,2.0709677,3873,1.185815775
2023-10-26 13:33:42.807,18071,228456,193645,6444,1.9729917,3845,1.177242875
2023-10-26 13:33:42.837,18072,228443,193633,615,0.188297625,3881,1.188265175
2023-10-26 13:33:42.837,18073,228415,193620,953,0.291784775,3874,1.18612195
2023-10-26 13:33:42.837,18074,228425,193626,6569,2.011263575,3596,1.1010053
2023-10-26 13:33:42.837,18075,228424,193604,6283,1.923697525,3231,0.989251425
2023-10-26 13:33:42.837,18076,228424,193614,365,0.111753875,3285,1.005784875
2023-10-26 13:33:42.837,18077,228428,193620,638,0.19533965,3043,0.931690525
2023-10-26 13:33:42.837,18078,228433,193611,6151,1.883282425,2769,0.847798575
2023-10-26 13:33:42.837,18079,228452,193623,6305,1.930433375,3036,0.9295473
2023-10-26 13:33:42.867,18080,228433,193624,704,0.2155472,3028,0.9270979
2023-10-26 13:33:42.867,18081,228463,193638,1010,0.30923675,3087,0.945162225
2023-10-26 13:33:42.867,18082,228471,193629,6599,2.020448825,2992,0.9160756
2023-10-26 13:33:42.867,18083,228468,193639,6617,2.025959975,3045,0.932302875
2023-10-26 13:33:42.867,18084,228432,193634,1031,0.315666425,3651,1.117844925
2023-10-26 13:33:42.867,18085,228449,193629,1316,0.4029263,3536,1.0826348
2023-10-26 13:33:42.867,18086,228437,193618,7206,2.20629705,3465,1.060896375
2023-10-26 13:33:42.897,18087,228430,193594,7562,2.31529535,3571,1.093350925
2023-10-26 13:33:42.897,18088,228402,193602,1774,0.54315445,3756,1.1499933
2023-10-26 13:33:42.897,18089,228419,193594,1842,0.56397435,3932,1.2038801
2023-10-26 13:33:42.897,18090,228397,193593,7530,2.30549775,3959,1.212146825
2023-10-26 13:33:42.897,18091,228384,193592,7654,2.34346345,3930,1.20326775
2023-10-26 13:33:42.927,18092,228415,193580,2070,0.63378225,3965,1.213983875
2023-10-26 13:33:42.927,18093,228407,193573,2091,0.640211925,3975,1.217045625
2023-10-26 13:33:42.927,18094,228437,193574,7570,2.31774475,3855,1.180304625
2023-10-26 13:33:42.927,18095,228435,193597,8182,2.50512385,3718,1.13835865
2023-10-26 13:33:42.927,18096,228446,193607,2628,0.8046279,3699,1.132541325
2023-10-26 13:33:42.927,18097,228449,193617,2223,0.680627025,3712,1.1365216
2023-10-26 13:33:42.927,18098,228478,193613,7466,2.28590255,3634,1.11263995
2023-10-26 13:33:42.957,18099,228493,193620,8190,2.50757325,3547,1.086002725
2023-10-26 13:33:42.957,18100,228497,193648,2779,0.850860325,3569,1.092738575
2023-10-26 13:33:42.957,18101,228525,193637,2596,0.7948303,3615,1.106822625
2023-10-26 13:33:42.957,18102,228489,193625,8171,2.501755925,3571,1.093350925
2023-10-26 13:33:42.957,18103,228510,193630,8333,2.551356275,3543,1.084778025
2023-10-26 13:33:42.957,18104,228535,193647,2426,0.74278055,3660,1.1206005
2023-10-26 13:33:42.987,18105,228528,193645,2112,0.6466416,3827,1.171731725
2023-10-26 13:33:42.987,18106,228539,193650,7988,2.4457259,3904,1.1953072
2023-10-26 13:33:42.987,18107,228544,193627,8688,2.6600484,3964,1.2136777
2023-10-26 13:33:42.987,18108,228537,193643,2717,0.831877475,4124,1.2626657
2023-10-26 13:33:42.987,18109,228544,193637,2125,0.650621875,4299,1.316246325
2023-10-26 13:33:43.017,18110,228518,193630,7504,2.2975372,4364,1.3361477
2023-10-26 13:33:43.017,18111,228509,193628,8376,2.5645218,4409,1.349925575
2023-10-26 13:33:43.017,18112,228492,193627,2762,0.84565535,4561,1.396464175
2023-10-26 13:33:43.017,18113,228488,193609,2192,0.6711356,4734,1.44943245
2023-10-26 13:33:43.017,18114,228469,193590,7505,2.297843375,4789,1.466272075
2023-10-26 13:33:43.017,18115,228443,193584,7900,2.4187825,4800,1.46964
2023-10-26 13:33:43.057,18116,228435,193582,2186,0.66929855,4905,1.501788375
2023-10-26 13:33:43.057,18117,228426,193573,1309,0.400783075,5034,1.54128495
2023-10-26 13:33:43.057,18118,228413,193568,6781,2.076172675,5058,1.54863315
2023-10-26 13:33:43.057,18119,228403,193547,7701,2.357853675,5054,1.54740845
2023-10-26 13:33:43.057,18120,228396,193547,1880,0.575609,5144,1.5749642
2023-10-26 13:33:43.057,18121,228419,193543,863,0.264229025,5245,1.605887875
2023-10-26 13:33:43.087,18122,228401,193551,6256,1.9154308,5234,1.60251995
2023-10-26 13:33:43.087,18123,228392,193556,7553,2.312539775,5199,1.591803825
2023-10-26 13:33:43.087,18124,228377,193538,1494,0.45742545,5270,1.61354225
2023-10-26 13:33:43.087,18125,228397,193554,734,0.22473245,5367,1.643241225
2023-10-26 13:33:43.087,18126,228396,193553,6251,1.913899925,5352,1.6386486
2023-10-26 13:33:43.087,18127,228397,193550,7163,2.193131525,5294,1.62089045
2023-10-26 13:33:43.087,18128,228401,193552,1353,0.414254775,5323,1.629769525
2023-10-26 13:33:43.087,18129,228416,193559,269,0.082361075,5371,1.644465925
2023-10-26 13:33:43.117,18130,228409,193544,5627,1.722846725,5314,1.62701395
2023-10-26 13:33:43.117,18131,228445,193561,7080,2.167719,5230,1.60129525
2023-10-26 13:33:43.117,18132,228412,193565,1388,0.4249709,5250,1.60741875
2023-10-26 13:33:43.117,18133,228422,193570,66,0.02020755,5291,1.619971925
2023-10-26 13:33:43.117,18134,228439,193578,5344,1.6361992,5208,1.5945594
2023-10-26 13:33:43.117,18135,228450,193583,7052,2.1591461,5071,1.552613425
2023-10-26 13:33:43.117,18136,228438,193582,1218,0.37292115,5024,1.5382232
2023-10-26 13:33:43.147,18137,228446,193581,64,0.0195952,5007,1.533018225
2023-10-26 13:33:43.147,18138,228418,193579,5683,1.739992525,4882,1.49474635
2023-10-26 13:33:43.147,18139,228422,193585,7474,2.28835195,4719,1.444839825
2023-10-26 13:33:43.147,18140,228450,193575,1734,0.53090745,4654,1.42493845
2023-10-26 13:33:43.147,18141,228428,193587,712,0.2179966,4617,1.413609975
2023-10-26 13:33:43.177,18142,228446,193579,6258,1.91604315,4478,1.37105165
2023-10-26 13:33:43.177,18143,228427,193588,7912,2.4224566,4310,1.31961425
2023-10-26 13:33:43.177,18144,228441,193593,1993,0.610206775,4252,1.3018561
2023-10-26 13:33:43.207,18145,228465,193576,639,0.195645825,4235,1.296651125
2023-10-26 13:33:43.207,18146,228442,193585,5876,1.7990843,4118,1.26082865
2023-10-26 13:33:43.207,18147,228449,193602,7734,2.36795745,3967,1.214596225
2023-10-26 13:33:43.207,18148,228441,193605,2011,0.615717925,3927,1.202349225
2023-10-26 13:33:43.207,18149,228468,193588,568,0.1739074,3938,1.20571715
2023-10-26 13:33:43.207,18150,228471,193605,5832,1.7856126,3853,1.179692275
2023-10-26 13:33:43.237,18151,228470,193606,7300,2.2350775,3724,1.1401957
2023-10-26 13:33:43.237,18152,228474,193593,1577,0.482837975,3697,1.131928975
2023-10-26 13:33:43.237,18153,228463,193596,-214,-0.06552145,3713,1.136827775
2023-10-26 13:33:43.237,18154,228472,193585,4765,1.458923875,3631,1.111721425
2023-10-26 13:33:43.237,18155,228502,193603,6613,2.024735275,3519,1.077429825
2023-10-26 13:33:43.237,18156,228481,193594,1063,0.325464025,3526,1.07957305
2023-10-26 13:33:43.267,18157,228491,193597,-767,-0.234836225,3597,1.101311475
2023-10-26 13:33:43.267,18158,228490,193615,4650,1.42371375,3588,1.0985559
2023-10-26 13:33:43.267,18159,228508,193616,6663,2.040044025,3552,1.0875336
2023-10-26 13:33:43.267,18160,228511,193625,944,0.2890292,3629,1.111109075
2023-10-26 13:33:43.267,18161,228530,193622,-1118,-0.34230365,3763,1.152136525
2023-10-26 13:33:43.267,18162,228513,193618,4203,1.286853525,3805,1.164995875
2023-10-26 13:33:43.267,18163,228537,193630,6318,1.93441365,3801,1.163771175
2023-10-26 13:33:43.307,18164,228527,193620,904,0.2767822,3894,1.19224545
2023-10-26 13:33:43.307,18165,228526,193616,-1081,-0.330975175,4029,1.233579075
2023-10-26 13:33:43.307,18166,228515,193636,4009,1.227455575,4055,1.241539625
2023-10-26 13:33:43.307,18167,228510,193622,6494,1.98830045,4016,1.2295988
2023-10-26 13:33:43.307,18168,228492,193584,978,0.29943915,4057,1.242151975
2023-10-26 13:33:43.307,18169,228468,193588,-1044,-0.3196467,4123,1.262359525
2023-10-26 13:33:43.307,18170,228483,193574,4000,1.2247,4066,1.24490755
2023-10-26 13:33:43.337,18171,228456,193575,6405,1.961050875,3930,1.20326775
2023-10-26 13:33:43.337,18172,228439,193559,965,0.295458875,3870,1.18489725
2023-10-26 13:33:43.337,18173,228461,193556,-992,-0.3037256,3843,1.176630525
2023-10-26 13:33:43.337,18174,228451,193574,3791,1.160709425,3706,1.13468455
2023-10-26 13:33:43.337,18175,228440,193563,6157,1.885119475,3512,1.0752866
2023-10-26 13:33:43.367,18176,228445,193568,1075,0.329138125,3414,1.04528145
2023-10-26 13:33:43.367,18177,228451,193564,-953,-0.291784775,3371,1.032115925
2023-10-26 13:33:43.367,18178,228459,193554,4081,1.249500175,3233,0.989863775
2023-10-26 13:33:43.367,18179,228450,193570,6303,1.929821025,3050,0.93383375
2023-10-26 13:33:43.367,18180,228455,193570,1190,0.36434825,2972,0.9099521
2023-10-26 13:33:43.367,18181,228479,193566,-962,-0.29454035,2959,0.905971825
2023-10-26 13:33:43.367,18182,228488,193569,3981,1.218882675,2860,0.8756605
2023-10-26 13:33:43.397,18183,228512,193584,6328,1.9374754,2716,0.8315713
2023-10-26 13:33:43.397,18184,228519,193606,1226,0.37537055,2680,0.820549
2023-10-26 13:33:43.397,18185,228521,193590,-714,-0.21860895,2718,0.83218365
2023-10-26 13:33:43.397,18186,228517,193601,4148,1.2700139,2674,0.81871195
2023-10-26 13:33:43.397,18187,228546,193604,6465,1.979421375,2581,0.790237675
2023-10-26 13:33:43.407,18188,228550,193613,1387,0.424664725,2586,0.79176855
2023-10-26 13:33:43.427,18189,228550,193610,-1115,-0.341385125,2655,0.812894625
2023-10-26 13:33:43.427,18190,228554,193615,3819,1.169282325,2633,0.806158775
2023-10-26 13:33:43.427,18191,228553,193601,6415,1.964112625,2545,0.779215375
2023-10-26 13:33:43.427,18192,228556,193605,1242,0.38026935,2543,0.778603025
2023-10-26 13:33:43.427,18193,228560,193597,-1533,-0.469366275,2606,0.79789205
2023-10-26 13:33:43.427,18194,228515,193600,3607,1.104373225,2591,0.793299425
2023-10-26 13:33:43.427,18195,228548,193609,6757,2.068824475,2523,0.772479525
2023-10-26 13:33:43.427,18196,228526,193592,1546,0.47334655,2544,0.7789092
2023-10-26 13:33:43.457,18197,228550,193600,-1170,-0.35822475,2624,0.8034032
2023-10-26 13:33:43.457,18198,228526,193600,3623,1.109272025,2616,0.8009538
2023-10-26 13:33:43.457,18199,228545,193589,6467,1.980033725,2545,0.779215375
2023-10-26 13:33:43.457,18200,228532,193595,1576,0.4825318,2560,0.783808
2023-10-26 13:33:43.457,18201,228566,193603,-1017,-0.311379975,2637,0.807383475
2023-10-26 13:33:43.457,18202,228566,193598,3478,1.06487665,2639,0.807995825
2023-10-26 13:33:43.457,18203,228568,193619,6269,1.919411075,2589,0.792687075
2023-10-26 13:33:43.487,18204,228552,193612,1595,0.488349125,2627,0.804321725
2023-10-26 13:33:43.487,18205,228573,193619,-1007,-0.308318225,2720,0.832796
2023-10-26 13:33:43.487,18206,228558,193597,3930,1.20326775,2721,0.833102175
2023-10-26 13:33:43.487,18207,228547,193620,7532,2.3061101,2657,0.813506975
2023-10-26 13:33:43.487,18208,228546,193595,2507,0.767580725,2675,0.819018125
2023-10-26 13:33:43.487,18209,228535,193596,-1316,-0.4029263,2748,0.8413689
2023-10-26 13:33:43.517,18210,228533,193594,2330,0.71338775,2721,0.833102175
2023-10-26 13:33:43.517,18211,228542,193589,5231,1.601601425,2626,0.80401555
2023-10-26 13:33:43.517,18212,228521,193589,370,0.11328475,2621,0.802484675
2023-10-26 13:33:43.517,18213,228516,193580,-2313,-0.708182775,2682,0.82116135
2023-10-26 13:33:43.557,18214,228507,193564,2715,0.831265125,2658,0.81381315
2023-10-26 13:33:43.557,18215,228506,193566,6523,1.997179525,2571,0.787175925
2023-10-26 13:33:43.557,18216,228501,193565,2019,0.618167325,2573,0.787788275
2023-10-26 13:33:43.557,18217,228517,193558,-1035,-0.316891125,2647,0.810445225
2023-10-26 13:33:43.557,18218,228494,193563,3822,1.17020085,2639,0.807995825
2023-10-26 13:33:43.557,18219,228504,193562,7064,2.1628202,2560,0.783808
2023-10-26 13:33:43.587,18220,228520,193566,2128,0.6515404,2562,0.78442035
2023-10-26 13:33:43.587,18221,228522,193588,-1032,-0.3159726,2641,0.808608175
2023-10-26 13:33:43.587,18222,228525,193574,3412,1.0446691,2647,0.810445225
2023-10-26 13:33:43.587,18223,228545,193589,6709,2.054128075,2593,0.793911775
2023-10-26 13:33:43.587,18224,228546,193590,2048,0.6270464,2637,0.807383475
2023-10-26 13:33:43.587,18225,228568,193599,-1369,-0.419153575,2763,0.845961525
2023-10-26 13:33:43.617,18226,228571,193608,2989,0.915157075,2797,0.856371475
2023-10-26 13:33:43.617,18227,228578,193614,6472,1.9815646,2725,0.834326875
2023-10-26 13:33:43.617,18228,228587,193613,2112,0.6466416,2694,0.82483545
2023-10-26 13:33:43.617,18229,228603,193625,-1151,-0.352407425,2703,0.827591025
2023-10-26 13:33:43.617,18230,228590,193607,3498,1.07100015,2617,0.801259975
2023-10-26 13:33:43.617,18231,228583,193617,7201,2.204766175,2457,0.752271975
2023-10-26 13:33:43.617,18232,228580,193604,2661,0.814731675,2383,0.729615025
2023-10-26 13:33:43.647,18233,228605,193613,-438,-0.13410465,2393,0.732676775
2023-10-26 13:33:43.647,18234,228566,193602,3767,1.153361225,2335,0.714918625
2023-10-26 13:33:43.647,18235,228578,193594,7044,2.1566967,2217,0.678789975
2023-10-26 13:33:43.647,18236,228577,193589,2470,0.75625225,2200,0.673585
2023-10-26 13:33:43.647,18237,228567,193600,-1076,-0.3294443,2291,0.701446925
2023-10-26 13:33:43.647,18238,228567,193594,3294,1.00854045,2356,0.7213483
2023-10-26 13:33:43.647,18239,228578,193596,7095,2.172311625,2360,0.722573
2023-10-26 13:33:43.677,18240,228567,193591,2824,0.8646382,2590,0.79299325
2023-10-26 13:33:43.677,18241,228571,193566,-924,-0.2829057,2613,0.800035275
2023-10-26 13:33:43.677,18242,228569,193595,3178,0.97302415,2681,0.820855175
2023-10-26 13:33:43.677,18243,228568,193574,7067,2.163738725,2673,0.818405775
2023-10-26 13:33:43.677,18244,228573,193585,2727,0.834939225,2729,0.835551575
2023-10-26 13:33:43.707,18245,228555,193574,-854,-0.26147345,2850,0.87259875
2023-10-26 13:33:43.707,18246,228559,193565,3155,0.965982125,2872,0.8793346
2023-10-26 13:33:43.707,18247,228560,193569,7119,2.179659825,2786,0.85300355
2023-10-26 13:33:43.707,18248,228555,193560,2822,0.86402585,2755,0.843512125
2023-10-26 13:33:43.707,18249,228573,193579,-1000,-0.306175,2801,0.857596175
2023-10-26 13:33:43.707,18250,228561,193568,2991,0.915769425,2794,0.85545295
2023-10-26 13:33:43.707,18251,228567,193559,6771,2.073110925,2738,0.83830715
2023-10-26 13:33:43.737,18252,228586,193574,2420,0.7409435,2783,0.852085025
2023-10-26 13:33:43.737,18253,228615,193589,-908,-0.2780069,2926,0.89586805
2023-10-26 13:33:43.737,18254,228647,193612,3380,1.0348715,3000,0.918525
2023-10-26 13:33:43.737,18255,228655,193595,7145,2.187620375,2983,0.913320025
2023-10-26 13:33:43.737,18256,228671,193608,2792,0.8548406,3019,0.924342325
2023-10-26 13:33:43.737,18257,228678,193624,-1026,-0.31413555,3119,0.954959825
2023-10-26 13:33:43.767,18258,228717,193622,3024,0.9258732,3135,0.959858625
2023-10-26 13:33:43.767,18259,228709,193630,6984,2.1383262,3059,0.936589325
2023-10-26 13:33:43.767,18260,228691,193633,2798,0.85667765,3051,0.934139925
2023-10-26 13:33:43.767,18261,228694,193620,-1058,-0.32393315,3124,0.9564907
2023-10-26 13:33:43.807,18262,228682,193611,2863,0.876579025,3123,0.956184525
2023-10-26 13:33:43.807,18263,228675,193615,7028,2.1517979,3034,0.92893495
2023-10-26 13:33:43.807,18264,228677,193602,2885,0.883314875,3012,0.9221991
2023-10-26 13:33:43.807,18265,228682,193604,-1122,-0.34352835,3074,0.94118195
2023-10-26 13:33:43.807,18266,228673,193594,2558,0.78319565,3070,0.93995725
2023-10-26 13:33:43.807,18267,228683,193597,6870,2.10342225,2983,0.913320025
2023-10-26 13:33:43.807,18268,228665,193588,2873,0.879640775,2960,0.906278
2023-10-26 13:33:43.837,18269,228671,193594,-1298,-0.39741515,3025,0.926179375
2023-10-26 13:33:43.837,18270,228638,193571,2613,0.800035275,3032,0.9283226
2023-10-26 13:33:43.837,18271,228656,193585,6853,2.098217275,2959,0.905971825
2023-10-26 13:33:43.837,18272,228612,193573,3009,0.921280575,2947,0.902297725
2023-10-26 13:33:43.837,18273,228604,193556,-1169,-0.357918575,3014,0.92281145
2023-10-26 13:33:43.837,18274,228580,193537,2656,0.8132008,3012,0.9221991
2023-10-26 13:33:43.867,18275,228582,193522,6993,2.141081775,2928,0.8964804
2023-10-26 13:33:43.867,18276,228574,193521,3003,0.919443525,2912,0.8915816
2023-10-26 13:33:43.867,18277,228564,193532,-1187,-0.363429725,2988,0.9148509
2023-10-26 13:33:43.867,18278,228549,193529,2548,0.7801339,3004,0.9197497
2023-10-26 13:33:43.867,18279,228566,193526,7183,2.199255025,2934,0.89831745
2023-10-26 13:33:43.867,18280,228568,193546,3225,0.987414375,2928,0.8964804
2023-10-26 13:33:43.867,18281,228584,193547,-1322,-0.40476335,3005,0.920055875
2023-10-26 13:33:43.867,18282,228574,193539,2344,0.7176742,3009,0.921280575
2023-10-26 13:33:43.897,18283,228604,193561,7065,2.163126375,2917,0.893112475
2023-10-26 13:33:43.897,18284,228633,193563,3375,1.033340625,2888,0.8842334
2023-10-26 13:33:43.897,18285,228647,193585,-1101,-0.337098675,2949,0.902910075
2023-10-26 13:33:43.897,18286,228657,193579,2603,0.796973525,2944,0.9013792
2023-10-26 13:33:43.897,18287,228669,193601,7203,2.205378525,2845,0.871067875
2023-10-26 13:33:43.897,18288,228678,193604,3364,1.0299727,2807,0.859433225
2023-10-26 13:33:43.897,18289,228678,193603,-1064,-0.3257702,2864,0.8768852
2023-10-26 13:33:43.927,18290,228681,193609,2572,0.7874821,2869,0.878416075
2023-10-26 13:33:43.927,18291,228703,193620,7142,2.18670185,2789,0.853922075
2023-10-26 13:33:43.927,18292,228692,193611,3535,1.082328625,2772,0.8487171
2023-10-26 13:33:43.927,18293,228699,193609,-952,-0.2914786,2848,0.8719864
2023-10-26 13:33:43.927,18294,228694,193610,2636,0.8070773,2866,0.87749755
2023-10-26 13:33:43.957,18295,228664,193611,7132,2.1836401,2794,0.85545295
2023-10-26 13:33:43.957,18296,228686,193608,3727,1.141114225,2784,0.8523912
2023-10-26 13:33:43.957,18297,228672,193616,-963,-0.294846525,2872,0.8793346
2023-10-26 13:33:43.957,18298,228697,193597,2511,0.768805425,2903,0.888826025
2023-10-26 13:33:43.957,18299,228692,193601,7175,2.196805625,2838,0.86892465
2023-10-26 13:33:43.957,18300,228680,193593,4010,1.22776175,2828,0.8658629
2023-10-26 13:33:43.957,18301,228678,193593,-595,-0.182174125,2913,0.891887775
2023-10-26 13:33:43.987,18302,228650,193594,2723,0.833714525,2939,0.899848325
2023-10-26 13:33:43.987,18303,228687,193595,7218,2.20997115,2870,0.87872225
2023-10-26 13:33:43.987,18304,228670,193591,3943,1.207248025,2859,0.875354325
2023-10-26 13:33:43.987,18305,228663,193595,-340,-0.1040995,2947,0.902297725
2023-10-26 13:33:43.987,18306,228669,193588,2697,0.825753975,2983,0.913320025
2023-10-26 13:33:43.987,18307,228675,193594,7258,2.22221815,2921,0.894337175
2023-10-26 13:33:44.017,18308,228669,193577,4271,1.307673425,2912,0.8915816
2023-10-26 13:33:44.017,18309,228689,193612,-321,-0.098282175,3003,0.919443525
2023-10-26 13:33:44.017,18310,228689,193612,2783,0.852085025,3044,0.9319967
2023-10-26 13:33:44.017,18311,228697,193627,7216,2.2093588,2987,0.914544725
2023-10-26 13:33:44.017,18312,228734,193615,3994,1.22286295,2980,0.9124015
2023-10-26 13:33:44.057,18313,228733,193624,-784,-0.2400412,3071,0.940263425
2023-10-26 13:33:44.057,18314,228757,193628,2402,0.73543235,3112,0.9528166
2023-10-26 13:33:44.057,18315,228748,193646,7209,2.207215575,3052,0.9344461
2023-10-26 13:33:44.057,18316,228774,193657,4392,1.3447206,3042,0.93138435
2023-10-26 13:33:44.057,18317,228771,193649,-363,-0.111141525,3133,0.959246275
2023-10-26 13:33:44.057,18318,228775,193648,2635,0.806771125,3176,0.9724118
2023-10-26 13:33:44.057,18319,228792,193640,7622,2.33366585,3122,0.95587835
2023-10-26 13:33:44.087,18320,228739,193638,4627,1.416671725,3117,0.954347475
2023-10-26 13:33:44.087,18321,228766,193644,-171,-0.052355925,3214,0.98404645
2023-10-26 13:33:44.087,18322,228761,193618,2891,0.885151925,3271,1.001498425
2023-10-26 13:33:44.087,18323,228754,193647,8011,2.452767925,3232,0.9895576
2023-10-26 13:33:44.087,18324,228749,193624,4998,1.53026265,3236,0.9907823
2023-10-26 13:33:44.087,18325,228753,193616,2,0.00061235,3337,1.021705975
2023-10-26 13:33:44.117,18326,228728,193627,2989,0.915157075,3394,1.03915795
2023-10-26 13:33:44.117,18327,228721,193606,8317,2.546457475,3351,1.025992425
2023-10-26 13:33:44.117,18328,228742,193611,5460,1.6717155,3346,1.02446155
2023-10-26 13:33:44.117,18329,228727,193605,343,0.105018025,3430,1.05018025
2023-10-26 13:33:44.117,18330,228732,193597,3259,0.997824325,3464,1.0605902
2023-10-26 13:33:44.117,18331,228754,193622,8131,2.489508925,3394,1.03915795
2023-10-26 13:33:44.117,18332,228723,193607,5230,1.60129525,3364,1.0299727
2023-10-26 13:33:44.117,18333,228747,193627,432,0.1322676,3426,1.04895555
2023-10-26 13:33:44.147,18334,228750,193618,3281,1.004560175,3444,1.0544667
2023-10-26 13:33:44.147,18335,228739,193629,8302,2.54186485,3368,1.0311974
2023-10-26 13:33:44.147,18336,228728,193625,5635,1.725296125,3342,1.02323685
2023-10-26 13:33:44.147,18337,228730,193615,363,0.111141525,3424,1.0483432
2023-10-26 13:33:44.147,18338,228734,193612,3201,0.980066175,3475,1.063958125
2023-10-26 13:33:44.147,18339,228750,193606,8444,2.5853417,3438,1.05262965
2023-10-26 13:33:44.147,18340,228741,193610,5964,1.8260277,3454,1.05752845
2023-10-26 13:33:44.177,18341,228743,193625,773,0.236673275,3580,1.0961065
2023-10-26 13:33:44.177,18342,228732,193624,3245,0.993537875,3668,1.1230499
2023-10-26 13:33:44.177,18343,228749,193614,8372,2.5632971,3659,1.120294325
2023-10-26 13:33:44.177,18344,228735,193599,6049,1.852052575,3697,1.131928975
2023-10-26 13:33:44.177,18345,228743,193609,922,0.28229335,3846,1.17754905
2023-10-26 13:33:44.207,18346,228738,193611,3392,1.0385456,3960,1.212453
2023-10-26 13:33:44.207,18347,228741,193620,8331,2.550743925,3967,1.214596225
2023-10-26 13:33:44.207,18348,228756,193627,6063,1.856339025,4001,1.225006175
2023-10-26 13:33:44.207,18349,228771,193618,819,0.250757325,4124,1.2626657
2023-10-26 13:33:44.207,18350,228762,193622,3136,0.9601648,4200,1.285935
2023-10-26 13:33:44.207,18351,228758,193635,8525,2.610141875,4167,1.275831225
2023-10-26 13:33:44.207,18352,228784,193633,6270,1.91971725,4169,1.276443575
2023-10-26 13:33:44.237,18353,228802,193638,690,0.21126075,4276,1.3092043
2023-10-26 13:33:44.237,18354,228786,193628,2966,0.90811505,4345,1.330330375
2023-10-26 13:33:44.237,18355,228765,193631,8131,2.489508925,4302,1.31716485
2023-10-26 13:33:44.237,18356,228779,193628,5640,1.726827,4288,1.3128784
2023-10-26 13:33:44.237,18357,228790,193633,211,0.064602925,4380,1.3410465
2023-10-26 13:33:44.237,18358,228780,193618,2351,0.719817425,4441,1.359723175
2023-10-26 13:33:44.267,18359,228765,193615,7539,2.308253325,4397,1.346251475
2023-10-26 13:33:44.267,18360,228743,193614,5436,1.6643673,4388,1.3434959
2023-10-26 13:33:44.267,18361,228753,193602,-43,-0.013165525,4486,1.37350105
2023-10-26 13:33:44.267,18362,228753,193601,2093,0.640824275,4555,1.394627125
2023-10-26 13:33:44.267,18363,228730,193595,7476,2.2889643,4518,1.38329865
2023-10-26 13:33:44.267,18364,228736,193584,5709,1.747953075,4509,1.380543075
2023-10-26 13:33:44.267,18365,228727,193593,387,0.118489725,4606,1.41024205
2023-10-26 13:33:44.267,18366,228726,193588,2570,0.78686975,4672,1.4304496
2023-10-26 13:33:44.267,18367,228733,193595,7938,2.43041715,4624,1.4157532
2023-10-26 13:33:44.307,18368,228713,193573,5715,1.749790125,4597,1.407486475
2023-10-26 13:33:44.307,18369,228728,193581,-746,-0.22840655,4671,1.430143425
2023-10-26 13:33:44.307,18370,228708,193578,398,0.12185765,4714,1.44330895
2023-10-26 13:33:44.307,18371,228723,193580,5732,1.7549951,4645,1.422182875
2023-10-26 13:33:44.307,18372,228720,193576,4205,1.287465875,4595,1.406874125
2023-10-26 13:33:44.307,18373,228726,193567,-1149,-0.351795075,4638,1.42003965
2023-10-26 13:33:44.307,18374,228726,193575,1026,0.31413555,4641,1.420958175
2023-10-26 13:33:44.337,18375,228749,193587,6806,2.08382705,4527,1.386054225
2023-10-26 13:33:44.337,18376,228743,193581,5178,1.58537415,4426,1.35513055
2023-10-26 13:33:44.337,18377,228747,193591,-379,-0.116040325,4422,1.35390585
2023-10-26 13:33:44.337,18378,228733,193587,1319,0.403844825,4384,1.3422712
2023-10-26 13:33:44.337,18379,228758,193593,6668,2.0415749,4231,1.295426425
2023-10-26 13:33:44.367,18380,228741,193583,5136,1.5725148,4100,1.2553175
2023-10-26 13:33:44.367,18381,228757,193604,-425,-0.130124375,4087,1.251337225
2023-10-26 13:33:44.367,18382,228750,193582,1034,0.31658495,4070,1.24613225
2023-10-26 13:33:44.367,18383,228745,193596,6528,1.9987104,3962,1.21306535
2023-10-26 13:33:44.367,18384,228730,193586,4975,1.523220625,3893,1.191939275
2023-10-26 13:33:44.367,18385,228737,193586,-399,-0.122163825,3940,1.2063295
2023-10-26 13:33:44.367,18386,228751,193583,1231,0.376901425,3955,1.210922125
2023-10-26 13:33:44.367,18387,228746,193595,6738,2.06300715,3833,1.173568775
2023-10-26 13:33:44.397,18388,228754,193576,5160,1.579863,3705,1.134378375
2023-10-26 13:33:44.397,18389,228738,193576,-673,-0.206055775,3670,1.12366225
2023-10-26 13:33:44.397,18390,228739,193569,689,0.210954575,3607,1.104373225
2023-10-26 13:33:44.397,18391,228726,193572,6442,1.97237935,3061,0.937201675
2023-10-26 13:33:44.397,18392,228732,193562,5277,1.615685475,3128,0.9577154
2023-10-26 13:33:44.397,18393,228736,193590,-482,-0.14757635,3206,0.98159705
2023-10-26 13:33:44.427,18394,228756,193581,713,0.218302775,3088,0.9454684
2023-10-26 13:33:44.427,18395,228766,193595,6256,1.9154308,2989,0.915157075
2023-10-26 13:33:44.427,18396,228774,193605,5087,1.557512225,2872,0.8793346
2023-10-26 13:33:44.427,18397,228798,193604,-520,-0.159211,2899,0.887601325
2023-10-26 13:33:44.427,18398,228802,193609,825,0.252594375,2951,0.903522425
2023-10-26 13:33:44.457,18399,228767,193606,6418,1.96503115,2915,0.892500125
2023-10-26 13:33:44.457,18400,228802,193615,5055,1.547714625,2899,0.887601325
2023-10-26 13:33:44.457,18401,228797,193619,-633,-0.193808775,2995,0.916994125
2023-10-26 13:33:44.457,18402,228774,193611,513,0.157067775,3086,0.94485605
2023-10-26 13:33:44.457,18403,228774,193586,6045,1.850827875,3075,0.941488125
2023-10-26 13:33:44.457,18404,228767,193578,5195,1.590579125,3074,0.94118195
2023-10-26 13:33:44.487,18405,228760,193579,-655,-0.200544625,3169,0.970268575
2023-10-26 13:33:44.487,18406,228753,193574,679,0.207892825,3225,0.987414375
2023-10-26 13:33:44.487,18407,228776,193569,6214,1.90257145,3142,0.96200185
2023-10-26 13:33:44.487,18408,228744,193570,5090,1.55843075,3050,0.93383375
2023-10-26 13:33:44.487,18409,228756,193566,-741,-0.226875675,3066,0.93873255
2023-10-26 13:33:44.487,18410,228774,193568,584,0.1788062,3088,0.9454684
2023-10-26 13:33:44.517,18411,228788,193588,6321,1.935332175,3015,0.923117625
2023-10-26 13:33:44.517,18412,228806,193600,5265,1.612011375,2961,0.906584175
2023-10-26 13:33:44.517,18413,228826,193602,-609,-0.186460575,3019,0.924342325
2023-10-26 13:33:44.517,18414,228821,193603,369,0.112978575,3065,0.938426375
2023-10-26 13:33:44.517,18415,228833,193619,6045,1.850827875,2992,0.9160756
2023-10-26 13:33:44.557,18416,228844,193615,5110,1.56455425,2919,0.893724825
2023-10-26 13:33:44.557,18417,228874,193604,-663,-0.202994025,2956,0.9050533
2023-10-26 13:33:44.557,18418,228860,193612,244,0.0747067,2991,0.915769425
2023-10-26 13:33:44.557,18419,228867,193612,5742,1.75805685,2918,0.89341865
2023-10-26 13:33:44.557,18420,228875,193595,5173,1.583843275,2848,0.8719864
2023-10-26 13:33:44.557,18421,228870,193604,-795,-0.243409125,2891,0.885151925
2023-10-26 13:33:44.587,18422,228847,193597,-5,-0.001530875,2936,0.8989298
2023-10-26 13:33:44.587,18423,228855,193606,5780,1.7696915,2877,0.880865475
2023-10-26 13:33:44.587,18424,228864,193581,5093,1.559349275,2818,0.86280115
2023-10-26 13:33:44.587,18425,228833,193587,-571,-0.174825925,2863,0.876579025
2023-10-26 13:33:44.587,18426,228826,193558,-115,-0.035210125,2899,0.887601325
2023-10-26 13:33:44.587,18427,228822,193583,5288,1.6190534,2826,0.86525055
2023-10-26 13:33:44.617,18428,228823,193577,4905,1.501788375,2764,0.8462677
2023-10-26 13:33:44.617,18429,228816,193586,-801,-0.245246175,2819,0.863107325
2023-10-26 13:33:44.617,18430,228829,193586,-274,-0.08389195,2877,0.880865475
2023-10-26 13:33:44.617,18431,228811,193568,5440,1.665592,2826,0.86525055
2023-10-26 13:33:44.647,18432,228803,193569,5190,1.58904825,2771,0.848410925
2023-10-26 13:33:44.647,18433,228792,193560,-843,-0.258105525,2823,0.864332025
2023-10-26 13:33:44.647,18434,228810,193568,-294,-0.09001545,2871,0.879028425
2023-10-26 13:33:44.647,18435,228804,193564,5526,1.69192305,2804,0.8585147
2023-10-26 13:33:44.647,18436,228781,193557,5125,1.569146875,2732,0.8364701
2023-10-26 13:33:44.647,18437,228787,193545,-589,-0.180337075,2768,0.8474924
2023-10-26 13:33:44.647,18438,228804,193575,-351,-0.107467425,2802,0.85790235
2023-10-26 13:33:44.677,18439,228828,193574,5462,1.67232785,2718,0.83218365
2023-10-26 13:33:44.677,18440,228822,193584,5286,1.61844105,2629,0.804934075
2023-10-26 13:33:44.677,18441,228849,193604,-910,-0.27861925,2657,0.813506975
2023-10-26 13:33:44.677,18442,228858,193596,-805,-0.246470875,2694,0.82483545
2023-10-26 13:33:44.677,18443,228858,193606,5176,1.5847618,2619,0.801872325
2023-10-26 13:33:44.677,18444,228865,193613,5478,1.67722665,2529,0.774316575
2023-10-26 13:33:44.707,18445,228860,193607,-723,-0.221364525,2546,0.77952155
2023-10-26 13:33:44.707,18446,228897,193618,-880,-0.269434,2571,0.787175925
2023-10-26 13:33:44.707,18447,228872,193620,4649,1.423407575,2491,0.762681925
2023-10-26 13:33:44.707,18448,228881,193611,4911,1.503625425,2408,0.7372694
2023-10-26 13:33:44.707,18449,228891,193617,-1129,-0.345671575,2441,0.747373175
2023-10-26 13:33:44.707,18450,228898,193620,-860,-0.2633105,2486,0.76115105
2023-10-26 13:33:44.707,18451,228891,193625,4871,1.491378425,2419,0.740637325
2023-10-26 13:33:44.737,18452,228896,193609,4878,1.49352165,2342,0.71706185
2023-10-26 13:33:44.737,18453,228888,193617,-1344,-0.4114992,2376,0.7274718
2023-10-26 13:33:44.737,18454,228878,193621,-1517,-0.464467475,2428,0.7433929
2023-10-26 13:33:44.737,18455,228893,193625,4424,1.3545182,2379,0.728390325
2023-10-26 13:33:44.737,18456,228894,193610,4610,1.41146675,2325,0.711856875
2023-10-26 13:33:44.737,18457,228882,193619,-1103,-0.337711025,2384,0.7299212
2023-10-26 13:33:44.737,18458,228877,193615,-1097,-0.335873975,2449,0.749822575
2023-10-26 13:33:44.767,18459,228851,193604,4629,1.417284075,2394,0.73298295
2023-10-26 13:33:44.767,18460,228865,193609,5028,1.5394479,2321,0.710632175
2023-10-26 13:33:44.767,18461,228850,193586,-978,-0.29943915,2363,0.723491525
2023-10-26 13:33:44.767,18462,228844,193580,-1352,-0.4139486,2420,0.7409435
2023-10-26 13:33:44.767,18463,228825,193598,4278,1.30981665,2356,0.7213483
2023-10-26 13:33:44.767,18464,228835,193583,4793,1.467496775,2261,0.692261675
2023-10-26 13:33:44.807,18465,228829,193584,-1168,-0.3576124,2268,0.6944049
2023-10-26 13:33:44.807,18466,228839,193582,-1469,-0.449771075,2289,0.700834575
2023-10-26 13:33:44.807,18467,228823,193584,4201,1.286241175,2200,0.673585
2023-10-26 13:33:44.807,18468,228847,193571,4746,1.45310655,2093,0.640824275
2023-10-26 13:33:44.807,18469,228843,193595,-862,-0.26392285,2096,0.6417428
2023-10-26 13:33:44.807,18470,228866,193600,-1345,-0.411805375,2118,0.64847865
2023-10-26 13:33:44.807,18471,228865,193598,4126,1.26327805,2022,0.61908585
2023-10-26 13:33:44.837,18472,228872,193608,4949,1.515260075,1897,0.580813975
2023-10-26 13:33:44.837,18473,228907,193624,-1056,-0.3233208,1882,0.57622135
2023-10-26 13:33:44.837,18474,228903,193618,-1519,-0.465079825,1901,0.582038675
2023-10-26 13:33:44.837,18475,228915,193627,4223,1.292977025,1824,0.5584632
2023-10-26 13:33:44.837,18476,228905,193633,5070,1.55230725,1734,0.53090745
2023-10-26 13:33:44.837,18477,228887,193612,-862,-0.26392285,1757,0.537949475
2023-10-26 13:33:44.867,18478,228908,193605,-1576,-0.4825318,1807,0.553258225
2023-10-26 13:33:44.867,18479,228891,193621,4124,1.2626657,1749,0.535500075
2023-10-26 13:33:44.867,18480,228877,193605,5251,1.607724925,1673,0.512230775
2023-10-26 13:33:44.867,18481,228887,193598,-633,-0.193808775,1716,0.5253963
2023-10-26 13:33:44.867,18482,228876,193610,-1614,-0.49416645,1791,0.548359425
2023-10-26 13:33:44.897,18483,228884,193627,3993,1.222556775,1752,0.5364186
2023-10-26 13:33:44.897,18484,228913,193597,4970,1.52168975,1678,0.51376165
2023-10-26 13:33:44.897,18485,228886,193602,-729,-0.223201575,1704,0.5217222
2023-10-26 13:33:44.897,18486,228887,193595,-1565,-0.479163875,1758,0.53825565
2023-10-26 13:33:44.897,18487,228881,193589,4039,1.236640825,1709,0.523253075
