Time, Sample Count, IR Count, Red Count, Raw ECG, Raw ECG (mV), Filtered ECG, Filtered ECG (mV)
2023-10-26 13:36:14.192,29779,213569,195419,72772,22.2809671,131861,40.372541675
2023-10-26 13:36:14.232,29780,213559,195423,72676,22.2515743,131267,40.190673725
2023-10-26 13:36:14.252,29781,213557,195393,71736,21.9637698,130786,40.04340355
2023-10-26 13:36:14.332,29782,213569,195397,69769,21.361523575,129389,39.615677075
2023-10-26 13:36:14.332,29783,213596,195385,68900,21.0954575,123868,37.9252849
2023-10-26 13:36:14.332,29784,213648,195407,70221,21.499914675,114043,34.917115525
2023-10-26 13:36:14.332,29785,213679,195407,70802,21.67780235,104238,31.91506965
2023-10-26 13:36:14.362,29786,213718,195411,68448,20.9570664,96285,29.480059875
2023-10-26 13:36:14.362,29787,213775,195433,66614,20.39554145,89511,27.406030425
2023-10-26 13:36:14.362,29788,213824,195433,68194,20.87929795,83086,25.43885605
2023-10-26 13:36:14.362,29789,213868,195448,69369,21.239053575,77332,23.6771251
2023-10-26 13:36:14.362,29790,213951,195471,67521,20.673242175,73335,22.453343625
2023-10-26 13:36:14.392,29791,213998,195487,65902,20.17754485,71794,21.98152795
2023-10-26 13:36:14.392,29792,214048,195496,66739,20.433813325,72733,22.269026275
2023-10-26 13:36:14.392,29793,214099,195510,67021,20.520154675,75438,23.09722965
2023-10-26 13:36:14.392,29794,214145,195521,64941,19.883310675,78401,24.004426175
2023-10-26 13:36:14.432,29795,214154,195492,62634,19.17696495,79619,24.377347325
2023-10-26 13:36:14.432,29796,214165,195492,63085,19.315049875,78138,23.92390215
2023-10-26 13:36:14.432,29797,214189,195499,63734,19.51375745,74875,22.924853125
2023-10-26 13:36:14.462,29798,214190,195470,61213,18.741890275,71438,21.87252965
2023-10-26 13:36:14.462,29799,214211,195487,58018,17.76366115,68972,21.1175021
2023-10-26 13:36:14.462,29800,214159,195449,57083,17.477387525,68306,20.91358955
2023-10-26 13:36:14.462,29801,214102,195420,56413,17.272250275,69643,21.322945525
2023-10-26 13:36:14.462,29802,213996,195360,53493,16.378219275,71652,21.9380511
2023-10-26 13:36:14.462,29803,213861,195288,50470,15.45265225,72469,22.188196075
2023-10-26 13:36:14.492,29804,213662,195204,49288,15.0907534,71506,21.89334955
2023-10-26 13:36:14.492,29805,213446,195098,48055,14.713239625,69683,21.335192525
2023-10-26 13:36:14.492,29806,213228,194990,45050,13.79318375,67949,20.804285075
2023-10-26 13:36:14.492,29807,213046,194923,42475,13.004783125,66662,20.41023785
2023-10-26 13:36:14.492,29808,212842,194833,43561,13.337289175,66067,20.228063725
2023-10-26 13:36:14.522,29809,212688,194775,43534,13.32902245,66497,20.359718975
2023-10-26 13:36:14.522,29810,212553,194726,39612,12.1282041,67568,20.6876324
2023-10-26 13:36:14.522,29811,212423,194703,29788,9.1203409,68079,20.844087825
2023-10-26 13:36:14.522,29812,212319,194657,24484,7.4963887,67424,20.6435432
2023-10-26 13:36:14.522,29813,212249,194658,23800,7.286965,66064,20.2271452
2023-10-26 13:36:14.522,29814,212163,194624,19888,6.0892084,64566,19.76849505
2023-10-26 13:36:14.522,29815,212122,194609,16591,5.079749425,62776,19.2204418
2023-10-26 13:36:14.552,29816,212072,194607,18482,5.65872635,60717,18.590027475
2023-10-26 13:36:14.552,29817,212073,194624,20629,6.316084075,59277,18.149135475
2023-10-26 13:36:14.552,29818,212038,194619,18631,5.704346425,58542,17.92409685
2023-10-26 13:36:14.552,29819,212021,194619,17434,5.33785495,57654,17.65221345
2023-10-26 13:36:14.552,29820,212029,194634,21593,6.611236775,56031,17.155291425
2023-10-26 13:36:14.552,29821,212036,194633,25863,7.918604025,53826,16.48017555
2023-10-26 13:36:14.552,29822,212027,194628,24140,7.3910645,51261,15.694836675
2023-10-26 13:36:14.552,29823,212064,194651,21063,6.448964025,48367,14.808766225
2023-10-26 13:36:14.582,29824,212065,194644,23335,7.144593625,45679,13.985767825
2023-10-26 13:36:14.582,29825,212097,194650,25409,7.779600575,44055,13.488539625
2023-10-26 13:36:14.582,29826,212117,194659,23441,7.177048175,43387,13.284014725
2023-10-26 13:36:14.582,29827,212139,194658,21418,6.55765615,42228,12.9291579
2023-10-26 13:36:14.582,29828,212137,194677,23123,7.079684525,39262,12.02104285
2023-10-26 13:36:14.582,29829,212170,194678,24781,7.587322675,35133,10.756846275
2023-10-26 13:36:14.612,29830,212178,194687,22488,6.8852634,31019,9.497242325
2023-10-26 13:36:14.612,29831,212213,194681,19910,6.09594425,26781,8.199672675
2023-10-26 13:36:14.612,29832,212224,194687,21647,6.627770225,22499,6.888631325
2023-10-26 13:36:14.612,29833,212273,194694,23088,7.0689684,19299,5.908871325
2023-10-26 13:36:14.612,29834,212263,194697,20705,6.339353375,17634,5.39908995
2023-10-26 13:36:14.642,29835,212290,194697,17577,5.381637975,16876,5.1670093
2023-10-26 13:36:14.642,29836,212285,194679,18712,5.7291466,16980,5.1988515
2023-10-26 13:36:14.642,29837,212324,194687,20194,6.18289795,18628,5.7034279
2023-10-26 13:36:14.642,29838,212345,194694,17119,5.241409825,21305,6.523058375
2023-10-26 13:36:14.682,29839,212411,194739,11407,3.492538225,23135,7.083358625
2023-10-26 13:36:14.682,29840,212453,194742,11763,3.601536525,23389,7.161127075
2023-10-26 13:36:14.682,29841,212510,194771,13749,4.209600075,23168,7.0934624
2023-10-26 13:36:14.682,29842,212559,194777,12112,3.7083916,23212,7.1069341
2023-10-26 13:36:14.682,29843,212624,194797,10802,3.30730235,23200,7.10326
2023-10-26 13:36:14.712,29844,212659,194795,12976,3.9729268,22993,7.039881775
2023-10-26 13:36:14.712,29845,212718,194814,15073,4.614975775,23161,7.091319175
2023-10-26 13:36:14.712,29846,212763,194827,13596,4.1627553,23620,7.2318535
2023-10-26 13:36:14.712,29847,212799,194841,11906,3.64531955,23457,7.181946975
2023-10-26 13:36:14.712,29848,212798,194856,13613,4.167960275,23185,7.098667375
2023-10-26 13:36:14.712,29849,212852,194852,15380,4.7089715,23257,7.120711975
2023-10-26 13:36:14.742,29850,212849,194844,13600,4.16398,23133,7.082746275
2023-10-26 13:36:14.742,29851,212862,194843,11340,3.4720245,22929,7.020286575
2023-10-26 13:36:14.742,29852,212882,194846,12495,3.825656625,21680,6.637874
2023-10-26 13:36:14.742,29853,212871,194855,14035,4.297166125,20788,6.3647659
2023-10-26 13:36:14.742,29854,212884,194824,12280,3.759829,20439,6.257910825
2023-10-26 13:36:14.742,29855,212884,194821,10835,3.317406125,19617,6.006234975
2023-10-26 13:36:14.742,29856,212883,194816,12881,3.943840175,17669,5.409806075
2023-10-26 13:36:14.742,29857,212851,194802,15430,4.72428025,15609,4.779085575
2023-10-26 13:36:14.772,29858,212825,194772,14380,4.4027965,14312,4.3819766
2023-10-26 13:36:14.772,29859,212822,194762,12511,3.830555425,13286,4.06784105
2023-10-26 13:36:14.772,29860,212764,194729,14344,4.3917742,12337,3.777280975
2023-10-26 13:36:14.772,29861,212733,194714,16396,5.0200453,12051,3.689714925
2023-10-26 13:36:14.772,29862,212708,194692,14871,4.553128425,12474,3.81922695
2023-10-26 13:36:14.772,29863,212668,194681,12875,3.942003125,12861,3.937716675
2023-10-26 13:36:14.772,29864,212617,194644,14358,4.39606065,12991,3.977519425
2023-10-26 13:36:14.802,29865,212582,194609,16351,5.006267425,13378,4.09600915
2023-10-26 13:36:14.802,29866,212531,194585,15047,4.607015225,13854,4.24174845
2023-10-26 13:36:14.802,29867,212504,194582,13247,4.055900225,13515,4.137955125
2023-10-26 13:36:14.802,29868,212471,194549,15280,4.678354,13061,3.998951675
2023-10-26 13:36:14.802,29869,212459,194525,18016,5.5160488,12997,3.979356475
2023-10-26 13:36:14.832,29870,212466,194536,17084,5.2306937,13003,3.981193525
2023-10-26 13:36:14.832,29871,212498,194562,15155,4.640082125,13064,3.9998702
2023-10-26 13:36:14.832,29872,212528,194587,16581,5.076687675,13106,4.01272955
2023-10-26 13:36:14.832,29873,212574,194621,19116,5.8528413,13112,4.0145666
2023-10-26 13:36:14.862,29874,212640,194635,18714,5.72975895,13146,4.02497655
2023-10-26 13:36:14.892,29875,212743,194683,17489,5.354694575,13212,4.0451841
2023-10-26 13:36:14.892,29876,212812,194726,18837,5.767418475,13237,4.052838475
2023-10-26 13:36:14.892,29877,212918,194794,21179,6.484480325,13213,4.045490275
2023-10-26 13:36:14.892,29878,212980,194812,20115,6.158710125,13227,4.049776725
2023-10-26 13:36:14.892,29879,213093,194860,18306,5.60483955,13324,4.0794757
2023-10-26 13:36:14.892,29880,213175,194905,19463,5.959084025,13567,4.153876225
2023-10-26 13:36:14.892,29881,213277,194928,21968,6.7260524,13797,4.224296475
2023-10-26 13:36:14.892,29882,213374,194975,21877,6.698190475,14090,4.31400575
2023-10-26 13:36:14.932,29883,213480,195028,21092,6.4578431,14141,4.329620675
2023-10-26 13:36:14.932,29884,213581,195051,23362,7.15286035,14290,4.37524075
2023-10-26 13:36:14.932,29885,213688,195088,26367,8.072916225,14441,4.421473175
2023-10-26 13:36:14.932,29886,213748,195105,25926,7.93789305,14607,4.472298225
2023-10-26 13:36:14.932,29887,213857,195155,24251,7.425049925,14829,4.540269075
2023-10-26 13:36:14.932,29888,213927,195186,25213,7.719590275,15046,4.60670905
2023-10-26 13:36:14.932,29889,214029,195230,27002,8.26733735,15230,4.66304525
2023-10-26 13:36:14.932,29890,214119,195248,25831,7.908806425,15555,4.762552125
2023-10-26 13:36:14.932,29891,214152,195272,23670,7.24716225,16567,5.072401225
2023-10-26 13:36:14.932,29892,214229,195306,23947,7.331972725,17099,5.235286325
2023-10-26 13:36:14.932,29893,214290,195319,25037,7.665703475,17574,5.38071945
2023-10-26 13:36:14.932,29894,214326,195321,23754,7.27288095,18290,5.59994075
2023-10-26 13:36:14.962,29895,214355,195319,21672,6.6354246,18806,5.75792705
2023-10-26 13:36:14.962,29896,214376,195333,22714,6.95445895,18880,5.780584
2023-10-26 13:36:14.962,29897,214422,195338,24585,7.527312375,19044,5.8307967
2023-10-26 13:36:14.962,29898,214393,195324,23512,7.1987866,19577,5.993987975
2023-10-26 13:36:14.962,29899,214409,195331,21251,6.506524925,20094,6.15228045
2023-10-26 13:36:14.962,29900,214401,195296,21639,6.625320825,20370,6.23678475
2023-10-26 13:36:14.962,29901,214399,195308,22689,6.946804575,20926,6.40701805
2023-10-26 13:36:14.962,29902,214406,195276,21209,6.493665575,22083,6.761262525
2023-10-26 13:36:14.962,29903,214434,195277,18864,5.7756852,23269,7.124386075
2023-10-26 13:36:14.962,29904,214417,195252,18893,5.784564275,24000,7.3482
2023-10-26 13:36:14.962,29905,214393,195245,19781,6.056447675,24668,7.5527249
2023-10-26 13:36:14.962,29906,214381,195230,18463,5.652909025,25479,7.801032825
2023-10-26 13:36:14.962,29907,214375,195226,16508,5.0543369,25874,7.92197195
2023-10-26 13:36:14.962,29908,214355,195207,16741,5.125675675,25554,7.82399595
2023-10-26 13:36:14.962,29909,214369,195206,18153,5.557994775,25047,7.668765225
2023-10-26 13:36:14.992,29910,214355,195174,17626,5.39664055,24740,7.5747695
2023-10-26 13:36:14.992,29911,214364,195169,16139,4.941358325,24464,7.4902652
2023-10-26 13:36:14.992,29912,214351,195164,17006,5.20681205,24401,7.470976175
2023-10-26 13:36:14.992,29913,214363,195172,18760,5.743843,24324,7.4474007
2023-10-26 13:36:14.992,29914,214369,195174,18323,5.610044525,24168,7.3996374
2023-10-26 13:36:14.992,29915,214381,195179,16431,5.030761425,24017,7.353404975
2023-10-26 13:36:14.992,29916,214396,195174,16687,5.109142225,23599,7.225423825
2023-10-26 13:36:14.992,29917,214411,195177,18040,5.523397,23203,7.104178525
2023-10-26 13:36:14.992,29918,214426,195171,16779,5.137310325,23100,7.0726425
2023-10-26 13:36:14.992,29919,214459,195178,11805,3.614395875,22953,7.027634775
2023-10-26 13:36:14.992,29920,214488,195192,10450,3.19952875,22466,6.87852755
2023-10-26 13:36:14.992,29921,214538,195216,11822,3.61960085,21716,6.6488963
2023-10-26 13:36:14.992,29922,214594,195219,11369,3.480903575,21005,6.431205875
2023-10-26 13:36:14.992,29923,214653,195254,10128,3.1009404,20183,6.179530025
2023-10-26 13:36:15.022,29924,214703,195261,11304,3.4610022,19147,5.862332725
2023-10-26 13:36:15.022,29925,214770,195304,15331,4.693968925,18320,5.609126
2023-10-26 13:36:15.022,29926,214811,195320,15865,4.857466375,18011,5.514517925
2023-10-26 13:36:15.022,29927,214875,195361,14060,4.3048205,17849,5.464917575
2023-10-26 13:36:15.022,29928,214939,195358,14231,4.357176425,17550,5.37337125
2023-10-26 13:36:15.022,29929,214980,195376,15001,4.592931175,17438,5.33907965
2023-10-26 13:36:15.022,29930,215011,195394,11587,3.547649725,17695,5.417766625
2023-10-26 13:36:15.022,29931,215061,195397,9125,2.793846875,17881,5.474715175
2023-10-26 13:36:15.022,29932,215063,195416,9559,2.926726825,17816,5.4548138
2023-10-26 13:36:15.022,29933,215094,195425,12078,3.69798165,17652,5.4046011
2023-10-26 13:36:15.022,29934,215124,195419,13579,4.157550325,17489,5.354694575
2023-10-26 13:36:15.022,29935,215155,195434,12384,3.7916712,17387,5.323464725
2023-10-26 13:36:15.022,29936,215169,195435,12630,3.86699025,17234,5.27661995
2023-10-26 13:36:15.052,29937,215206,195436,14168,4.3378874,16323,4.997694525
2023-10-26 13:36:15.052,29938,215199,195443,13227,4.049776725,14225,4.355339375
2023-10-26 13:36:15.052,29939,215229,195457,10671,3.267193425,12918,3.95516865
2023-10-26 13:36:15.052,29940,215248,195428,8576,2.6257568,11804,3.6140897
2023-10-26 13:36:15.052,29941,215256,195452,9463,2.897334025,11263,3.448449025
2023-10-26 13:36:15.052,29942,215261,195418,9083,2.780987525,11754,3.59878095
2023-10-26 13:36:15.052,29943,215256,195420,7918,2.42429365,12692,3.8859731
2023-10-26 13:36:15.052,29944,215270,195422,10184,3.1180862,13380,4.0966215
2023-10-26 13:36:15.052,29945,215268,195420,12742,3.90128185,13933,4.265936275
2023-10-26 13:36:15.052,29946,215257,195396,12286,3.76166605,14248,4.3623814
2023-10-26 13:36:15.052,29947,215276,195410,10406,3.18605705,13923,4.262874525
2023-10-26 13:36:15.052,29948,215278,195401,10783,3.301485025,13181,4.035692675
2023-10-26 13:36:15.052,29949,215281,195396,12217,3.740539975,12425,3.804224375
2023-10-26 13:36:15.052,29950,215301,195389,11451,3.506009925,11978,3.66736415
2023-10-26 13:36:15.052,29951,215304,195384,9657,2.956731975,11863,3.632154025
2023-10-26 13:36:15.052,29952,215292,195384,9915,3.035725125,11822,3.61960085
2023-10-26 13:36:15.082,29953,215312,195374,11426,3.49835555,11898,3.64287015
2023-10-26 13:36:15.082,29954,215286,195353,10923,3.344349525,12333,3.776056275
2023-10-26 13:36:15.082,29955,215214,195318,9017,2.760779975,12819,3.924857325
2023-10-26 13:36:15.082,29956,215085,195249,9270,2.83824225,12837,3.930368475
2023-10-26 13:36:15.082,29957,214910,195179,10769,3.297198575,12386,3.79228355
2023-10-26 13:36:15.082,29958,214705,195056,9929,3.040011575,12090,3.70165575
2023-10-26 13:36:15.082,29959,214414,194946,6094,1.86583045,11817,3.618069975
2023-10-26 13:36:15.082,29960,214129,194807,4621,1.414834675,10545,3.228615375
2023-10-26 13:36:15.082,29961,213846,194691,6409,1.962275575,9587,2.935299725
2023-10-26 13:36:15.082,29962,213566,194549,6161,1.886344175,9695,2.968366625
2023-10-26 13:36:15.082,29963,213308,194445,4840,1.481887,10233,3.133088775
2023-10-26 13:36:15.082,29964,213034,194328,6357,1.946354475,10677,3.269030475
2023-10-26 13:36:15.082,29965,212843,194252,8851,2.709954925,11117,3.403747475
2023-10-26 13:36:15.112,29966,212639,194156,8389,2.568502075,11558,3.53877065
2023-10-26 13:36:15.112,29967,212521,194104,6522,1.99687335,11615,3.556222625
2023-10-26 13:36:15.112,29968,212371,194032,6648,2.0354514,11220,3.4352835
2023-10-26 13:36:15.112,29969,212259,193982,7246,2.21854405,10761,3.294749175
2023-10-26 13:36:15.112,29970,212142,193925,4928,1.5088304,10525,3.222491875
2023-10-26 13:36:15.112,29971,212081,193901,2800,0.85729,10453,3.200447275
2023-10-26 13:36:15.112,29972,212026,193859,3167,0.969656225,10540,3.2270845
2023-10-26 13:36:15.112,29973,211972,193843,4783,1.464435025,10745,3.289850375
2023-10-26 13:36:15.112,29974,211939,193839,4320,1.322676,10813,3.310670275
2023-10-26 13:36:15.112,29975,211912,193824,2101,0.643273675,10763,3.295361525
2023-10-26 13:36:15.142,29976,211933,193822,1879,0.575302825,10329,3.162481575
2023-10-26 13:36:15.142,29977,211932,193840,3487,1.067632225,9209,2.819565575
2023-10-26 13:36:15.142,29978,211954,193864,2985,0.913932375,8099,2.479711325
2023-10-26 13:36:15.142,29979,212009,193866,961,0.294234175,7178,2.19772415
2023-10-26 13:36:15.142,29980,212007,193873,912,0.2792316,6341,1.941455675
2023-10-26 13:36:15.142,29981,212048,193916,2686,0.82238605,6030,1.84623525
2023-10-26 13:36:15.142,29982,212069,193942,2693,0.824529275,6430,1.96870525
2023-10-26 13:36:15.182,29983,212120,193962,1248,0.3821064,6951,2.128222425
2023-10-26 13:36:15.182,29984,212167,193982,2020,0.6184735,7162,2.19282535
2023-10-26 13:36:15.182,29985,212182,194002,3906,1.19591955,7248,2.2191564
2023-10-26 13:36:15.182,29986,212206,194014,3599,1.101923825,7144,2.1873142
2023-10-26 13:36:15.182,29987,212252,194022,1644,0.5033517,6721,2.057802175
2023-10-26 13:36:15.182,29988,212267,194029,1685,0.515904875,6538,2.00177215
2023-10-26 13:36:15.182,29989,212301,194043,3405,1.042525875,6347,1.943292725
2023-10-26 13:36:15.182,29990,212332,194053,3085,0.944549875,5474,1.67600195
2023-10-26 13:36:15.182,29991,212360,194059,1336,0.4090498,4736,1.4500448
2023-10-26 13:36:15.182,29992,212384,194091,1259,0.385474325,3895,1.192551625
2023-10-26 13:36:15.212,29993,212460,194093,2907,0.890050725,3249,0.994762575
2023-10-26 13:36:15.212,29994,212471,194116,2823,0.864332025,3184,0.9748612
2023-10-26 13:36:15.212,29995,212516,194130,1139,0.348733325,3265,0.999661375
2023-10-26 13:36:15.212,29996,212543,194137,1161,0.355469175,2999,0.918218825
2023-10-26 13:36:15.212,29997,212583,194160,2619,0.801872325,2650,0.81136375
2023-10-26 13:36:15.212,29998,212628,194172,1285,0.393434875,2640,0.808302
2023-10-26 13:36:15.212,29999,212663,194173,-1114,-0.34107895,2782,0.85177885
2023-10-26 13:36:15.242,30000,212697,194196,-1208,-0.3698594,2700,0.8266725
2023-10-26 13:36:15.242,30001,212749,194207,794,0.24310295,2471,0.756558425
2023-10-26 13:36:15.242,30002,212757,194217,833,0.255043775,2334,0.71461245
2023-10-26 13:36:15.242,30003,212798,194241,-1136,-0.3478148,2305,0.705733375
2023-10-26 13:36:15.242,30004,212820,194254,-1569,-0.480388575,2322,0.71093835
2023-10-26 13:36:15.242,30005,212856,194270,76,0.0232693,2318,0.70971365
2023-10-26 13:36:15.242,30006,212887,194275,-172,-0.0526621,2305,0.705733375
2023-10-26 13:36:15.242,30007,212916,194284,-2403,-0.735738525,2322,0.71093835
2023-10-26 13:36:15.272,30008,212926,194279,-3243,-0.992925525,2349,0.719205075
2023-10-26 13:36:15.272,30009,212931,194282,-2373,-0.726553275,2356,0.7213483
2023-10-26 13:36:15.272,30010,212919,194281,-2791,-0.854534425,2371,0.725940925
2023-10-26 13:36:15.272,30011,212908,194264,-4700,-1.4390225,2417,0.740024975
2023-10-26 13:36:15.272,30012,212898,194254,-5211,-1.595477925,2445,0.748597875
2023-10-26 13:36:15.272,30013,212886,194238,-3933,-1.204186275,2408,0.7372694
2023-10-26 13:36:15.302,30014,212850,194223,-4244,-1.2994067,2327,0.712469225
2023-10-26 13:36:15.302,30015,212848,194193,-5559,-1.702026825,2228,0.6821579
2023-10-26 13:36:15.302,30016,212781,194157,-5519,-1.689779825,2082,0.63745635
2023-10-26 13:36:15.332,30017,212754,194143,-3808,-1.1659144,1864,0.5707102
2023-10-26 13:36:15.332,30018,212737,194123,-4094,-1.25348045,1625,0.497534375
2023-10-26 13:36:15.332,30019,212683,194094,-5926,-1.81439305,1414,0.43293145
2023-10-26 13:36:15.332,30020,212671,194086,-6357,-1.946354475,956,0.2927033
2023-10-26 13:36:15.332,30021,212667,194074,-5226,-1.60007055,367,0.112366225
2023-10-26 13:36:15.332,30022,212658,194067,-5061,-1.549551675,126,0.03857805
2023-10-26 13:36:15.362,30023,212656,194061,-6596,-2.0195303,63,0.019289025
2023-10-26 13:36:15.362,30024,212681,194066,-6923,-2.119649525,-135,-0.041333625
2023-10-26 13:36:15.362,30025,212662,194060,-5259,-1.610174325,-371,-0.113590925
2023-10-26 13:36:15.362,30026,212670,194067,-4820,-1.4757635,-465,-0.142371375
2023-10-26 13:36:15.362,30027,212708,194071,-6292,-1.9264531,-819,-0.250757325
2023-10-26 13:36:15.392,30028,212693,194075,-6564,-2.0097327,-1756,-0.5376433
2023-10-26 13:36:15.392,30029,212715,194080,-4960,-1.518628,-2827,-0.865556725
2023-10-26 13:36:15.392,30030,212746,194078,-4522,-1.38452335,-3467,-1.061508725
2023-10-26 13:36:15.432,30031,212745,194080,-5511,-1.687330425,-3825,-1.171119375
2023-10-26 13:36:15.432,30032,212794,194099,-5546,-1.69804655,-4206,-1.28777205
2023-10-26 13:36:15.462,30033,212804,194106,-3757,-1.150299475,-4458,-1.36492815
2023-10-26 13:36:15.522,30034,212838,194114,-3170,-0.97057475,-4372,-1.3385971
2023-10-26 13:36:15.522,30035,212883,194127,-4641,-1.420958175,-4269,-1.307061075
2023-10-26 13:36:15.522,30036,212948,194135,-4593,-1.406261775,-4401,-1.347476175
2023-10-26 13:36:15.552,30037,212998,194165,-2907,-0.890050725,-4454,-1.36370345
2023-10-26 13:36:15.552,30038,213047,194172,-2586,-0.79176855,-4633,-1.418508775
2023-10-26 13:36:15.552,30039,213108,194190,-3903,-1.195001025,-4840,-1.481887
2023-10-26 13:36:15.552,30040,213176,194228,-4150,-1.27062625,-4994,-1.52903795
2023-10-26 13:36:15.582,30041,213228,194253,-2511,-0.768805425,-5143,-1.574658025
2023-10-26 13:36:15.582,30042,213296,194273,-2040,-0.624597,-5279,-1.616297825
2023-10-26 13:36:15.612,30043,213342,194310,-3458,-1.05875315,-5374,-1.64538445
2023-10-26 13:36:15.642,30044,213421,194350,-3789,-1.160097075,-5459,-1.671409325
2023-10-26 13:36:15.682,30045,213457,194374,-2325,-0.711856875,-5570,-1.70539475
2023-10-26 13:36:15.682,30046,213531,194390,-2157,-0.660419475,-5675,-1.737543125
2023-10-26 13:36:15.712,30047,213542,194398,-3279,-1.003947825,-5720,-1.751321
2023-10-26 13:36:15.712,30048,213590,194427,-3315,-1.014970125,-5713,-1.749177775
2023-10-26 13:36:15.712,30049,213607,194437,-1731,-0.529988925,-5693,-1.743054275
2023-10-26 13:36:15.712,30050,213657,194464,-1515,-0.463855125,-5647,-1.728970225
2023-10-26 13:36:15.742,30051,213689,194452,-3027,-0.926791725,-5541,-1.696515675
2023-10-26 13:36:15.742,30052,213703,194468,-3308,-1.0128269,-5391,-1.650589425
2023-10-26 13:36:15.742,30053,213772,194494,-1613,-0.493860275,-5233,-1.602213775
2023-10-26 13:36:15.772,30054,213818,194508,-938,-0.28719215,-5054,-1.54740845
2023-10-26 13:36:15.772,30055,213826,194536,-1983,-0.607145025,-4828,-1.4782129
2023-10-26 13:36:15.772,30056,213908,194546,-1546,-0.47334655,-4582,-1.40289385
2023-10-26 13:36:15.772,30057,213978,194571,1366,0.41823505,-4367,-1.337066225
2023-10-26 13:36:15.772,30058,213992,194597,3573,1.093963275,-4175,-1.278280625
2023-10-26 13:36:15.772,30059,214050,194590,4530,1.38697275,-3974,-1.21673945
2023-10-26 13:36:15.802,30060,214079,194613,6984,2.1383262,-3776,-1.1561168
2023-10-26 13:36:15.802,30061,214092,194612,12118,3.71022865,-3617,-1.107434975
2023-10-26 13:36:15.802,30062,214104,194600,16491,5.049131925,-3482,-1.06610135
2023-10-26 13:36:15.802,30063,214075,194604,19456,5.9569408,-3336,-1.0213998
2023-10-26 13:36:15.802,30064,214085,194603,23003,7.042943525,-3196,-0.9785353
2023-10-26 13:36:15.802,30065,214061,194581,28584,8.7517062,-3099,-0.948836325
2023-10-26 13:36:15.802,30066,214047,194577,32674,10.00396195,-3027,-0.926791725
2023-10-26 13:36:15.832,30067,214048,194558,34719,10.630089825,-2941,-0.900460675
2023-10-26 13:36:15.832,30068,214029,194542,37486,11.47727605,-2850,-0.87259875
2023-10-26 13:36:15.832,30069,214004,194517,40873,12.514290775,-2785,-0.852697375
2023-10-26 13:36:15.832,30070,213998,194511,42805,13.105820875,-2726,-0.83463305
2023-10-26 13:36:15.832,30071,213971,194497,42144,12.9034392,-2630,-0.80524025
2023-10-26 13:36:15.862,30072,213949,194498,41377,12.668602975,-2509,-0.768193075
2023-10-26 13:36:15.862,30073,213927,194475,42128,12.8985404,-2384,-0.7299212
2023-10-26 13:36:15.892,30074,213939,194503,41998,12.85873765,-2215,-0.678177625
2023-10-26 13:36:15.892,30075,213925,194481,39846,12.19984905,-1446,-0.44272905
2023-10-26 13:36:15.892,30076,213973,194479,37785,11.568822375,675,0.206668125
2023-10-26 13:36:15.892,30077,213961,194509,37577,11.505137975,2928,0.8964804
2023-10-26 13:36:15.892,30078,213976,194499,37134,11.36950245,5891,1.803676925
2023-10-26 13:36:15.932,30079,213975,194475,34186,10.46689855,9482,2.90315135
2023-10-26 13:36:15.932,30080,214017,194522,31113,9.526022775,13214,4.04579645
2023-10-26 13:36:15.932,30081,214041,194548,29556,9.0493083,17073,5.227325775
2023-10-26 13:36:15.932,30082,214090,194561,27166,8.31755005,21339,6.533468325
2023-10-26 13:36:15.932,30083,214116,194580,22474,6.88097695,25736,7.8797198
2023-10-26 13:36:15.932,30084,214159,194597,18853,5.772317275,29730,9.10258275
2023-10-26 13:36:15.932,30085,214188,194599,17267,5.286723725,33300,10.1956275
2023-10-26 13:36:15.932,30086,214222,194620,14976,4.5852768,36620,11.2121285
2023-10-26 13:36:15.932,30087,214231,194637,10706,3.27790955,39429,12.072174075
2023-10-26 13:36:15.932,30088,214296,194656,6571,2.011875925,41251,12.630024925
2023-10-26 13:36:15.962,30089,214318,194677,4174,1.27797445,42152,12.9058886
2023-10-26 13:36:15.962,30090,214374,194687,1255,0.384249625,42612,13.0467291
2023-10-26 13:36:15.962,30091,214380,194709,-2766,-0.84688005,42695,13.072141625
2023-10-26 13:36:15.962,30092,214443,194726,-5827,-1.784081725,42087,12.885987225
2023-10-26 13:36:15.962,30093,214447,194751,-6970,-2.13403975,40888,12.5188834
2023-10-26 13:36:15.962,30094,214507,194759,-8772,-2.6857671,39648,12.1392264
2023-10-26 13:36:15.962,30095,214526,194783,-11649,-3.566632575,38571,11.809475925
2023-10-26 13:36:15.962,30096,214587,194811,-13378,-4.09600915,37374,11.44298445
2023-10-26 13:36:15.962,30097,214632,194844,-13701,-4.194903675,35499,10.868906325
2023-10-26 13:36:15.992,30098,214680,194918,-13924,-4.2631807,33339,10.207568325
2023-10-26 13:36:15.992,30099,214694,194978,-14380,-4.4027965,31081,9.516225175
2023-10-26 13:36:15.992,30100,214710,195014,-15753,-4.823174775,28299,8.664446325
2023-10-26 13:36:15.992,30101,214716,195037,-16175,-4.952380625,25105,7.686523375
2023-10-26 13:36:15.992,30136,203078,204719,1890,0.57867075,-34407,-10.534563225
2023-10-26 13:36:15.992,30137,206227,202518,18672,5.7168996,-34000,-10.40995
2023-10-26 13:36:15.992,30138,184741,180224,45001,13.778181175,-33824,-10.3560632
2023-10-26 13:36:16.022,30139,163840,138045,45201,13.839416175,-33420,-10.2323685
2023-10-26 13:36:16.022,30140,114688,114688,21145,6.474070375,-33512,-10.2605366
2023-10-26 13:36:16.022,30141,65536,65536,29312,8.9746016,-34560,-10.581408
2023-10-26 13:36:16.022,30142,45295,41893,48566,14.86969505,-36179,-11.077105325
2023-10-26 13:36:16.022,30143,33177,30887,49085,15.028599875,-38930,-11.91939275
2023-10-26 13:36:16.022,30144,24914,23478,34648,10.6083514,-42266,-12.94079255
2023-10-26 13:36:16.022,30145,18600,17300,39117,11.976647475,-43127,-13.204409225
2023-10-26 13:36:16.022,30146,13345,12397,52602,16.10541735,-36692,-11.2341731
2023-10-26 13:36:16.052,30147,9302,8673,52661,16.123481675,-21916,-6.7101313
2023-10-26 13:36:16.052,30148,6532,6144,46357,14.193354475,-3815,-1.168057625
2023-10-26 13:36:16.052,30149,4594,4376,47869,14.656291075,12620,3.8639285
2023-10-26 13:36:16.052,30150,3406,3285,53585,16.406387375,25838,7.91094965
2023-10-26 13:36:16.052,30151,2550,2512,51712,15.8329216,35218,10.78287115
2023-10-26 13:36:16.052,30152,2137,2138,48388,14.8151959,38951,11.925822425
2023-10-26 13:36:16.052,30153,1783,1811,48354,14.80478595,36182,11.07802385
2023-10-26 13:36:16.082,30154,1596,1616,49938,15.28976715,32437,9.931398475
2023-10-26 13:36:16.082,30155,1329,1377,47015,14.394817625,31675,9.698093125
2023-10-26 13:36:16.082,30156,1226,1270,43533,13.328716275,29455,9.018384625
2023-10-26 13:36:16.082,30157,1045,1116,42873,13.126640775,23712,7.2600216
2023-10-26 13:36:16.082,30158,1021,1085,42690,13.07061075,21904,6.7064572
2023-10-26 13:36:16.082,30159,899,985,39471,12.085033425,29072,8.9011196
2023-10-26 13:36:16.112,30160,921,996,36630,11.21519025,39339,12.044618325
2023-10-26 13:36:16.112,30161,833,927,37102,11.35970485,45698,13.99158515
2023-10-26 13:36:16.112,30162,881,957,38395,11.755589125,48028,14.7049729
2023-10-26 13:36:16.112,30163,798,900,34868,10.6757099,48701,14.911028675
2023-10-26 13:36:16.112,30164,856,935,31021,9.497854675,47358,14.49983565
2023-10-26 13:36:16.112,30165,777,881,33384,10.2213462,44504,13.6260122
2023-10-26 13:36:16.112,30166,841,921,36817,11.272444975,43482,13.31310135
2023-10-26 13:36:16.142,30167,762,874,32867,10.063053725,46122,14.12140335
2023-10-26 13:36:16.142,30168,831,910,28460,8.7137405,50304,15.4018272
2023-10-26 13:36:16.142,30169,751,866,32210,9.86189675,53208,16.2909594
2023-10-26 13:36:16.142,30170,822,904,35607,10.901973225,53917,16.508037475
2023-10-26 13:36:16.142,30171,179,0,19369,5.930303575,52744,16.1488942
2023-10-26 13:36:16.142,30172,222,24,-51029,-15.623804075,49897,15.277213975
2023-10-26 13:36:16.142,30173,150,0,-9768,-2.9907174,46348,14.1905989
2023-10-26 13:36:16.182,30174,223,24,115765,35.444348875,43711,13.383215425
2023-10-26 13:36:16.182,30175,147,0,-4225,-1.293589375,42583,13.037850025
2023-10-26 13:36:16.182,30176,222,24,-124123,-38.003359525,42089,12.886599575
2023-10-26 13:36:16.182,30177,147,0,-29632,-9.0725776,41381,12.669827675
2023-10-26 13:36:16.182,30178,224,26,112152,34.3381386,40511,12.403455425
2023-10-26 13:36:16.182,30179,149,0,-4416,-1.3520688,39459,12.081359325
2023-10-26 13:36:16.182,30180,226,28,-124075,-37.988663125,37590,11.50911825
2023-10-26 13:36:16.182,30181,154,0,-28507,-8.728130725,35192,10.7749106
2023-10-26 13:36:16.182,30182,228,29,112799,34.536233825,33814,10.35300145
2023-10-26 13:36:16.217,30183,152,0,-2496,-0.7642128,33773,10.340448275
2023-10-26 13:36:16.217,30184,230,29,-123591,-37.840474425,33481,10.251045175
2023-10-26 13:36:16.217,30185,147,0,-26630,-8.15344025,32510,9.95374925
2023-10-26 13:36:16.217,30186,227,30,113687,34.808117225,32231,9.868326425
2023-10-26 13:36:16.217,30187,146,0,-195,-0.059704125,32880,10.067034
2023-10-26 13:36:16.218,30188,228,31,-123172,-37.7121871,27561,8.438489175
2023-10-26 13:36:16.218,30189,141,0,-26073,-7.982900775,10785,3.302097375
2023-10-26 13:36:16.218,30190,222,33,114244,34.9786567,5587,1.710599725
2023-10-26 13:36:16.218,30191,134,0,2107,0.645110725,20700,6.3378225
2023-10-26 13:36:16.252,30192,221,33,-122861,-37.616966675,17045,5.218752875
2023-10-26 13:36:16.252,30193,132,0,-26798,-8.20487765,-14293,-4.376159275
2023-10-26 13:36:16.252,30194,219,34,114390,35.02335825,-25225,-7.723264375
2023-10-26 13:36:16.252,30195,129,0,4597,1.407486475,-2740,-0.8389195
2023-10-26 13:36:16.252,30196,218,36,-122414,-37.48010645,4663,1.427694025
2023-10-26 13:36:16.252,30197,129,0,-26969,-8.257233575,-18457,-5.651071975
2023-10-26 13:36:16.252,30198,215,35,114577,35.080612975,-26165,-8.011068875
2023-10-26 13:36:16.252,30199,128,0,6321,1.935332175,-4122,-1.26205335
2023-10-26 13:36:16.282,30200,217,40,-122075,-37.376313125,2026,0.62031055
2023-10-26 13:36:16.282,30201,128,0,-26455,-8.099859625,-20932,-6.4088551
2023-10-26 13:36:16.282,30202,213,39,115091,35.237986925,-26438,-8.09465465
2023-10-26 13:36:16.282,30203,127,0,8237,2.521963475,-1219,-0.373227325
2023-10-26 13:36:16.282,30204,215,39,-121685,-37.256904875,7394,2.26385795
2023-10-26 13:36:16.282,30205,125,0,-26417,-8.088224975,-15323,-4.691519525
2023-10-26 13:36:16.282,30206,213,41,115381,35.326777675,-22917,-7.016612475
2023-10-26 13:36:16.319,30207,124,0,10724,3.2834207,-624,-0.1910532
2023-10-26 13:36:16.319,30208,215,43,-121240,-37.120657,5815,1.780407625
2023-10-26 13:36:16.319,30209,123,0,-26629,-8.153134075,-17662,-5.40766285
2023-10-26 13:36:16.319,30210,214,44,115611,35.397197925,-24566,-7.52149505
2023-10-26 13:36:16.319,30211,121,0,12440,3.808817,-300,-0.0918525
2023-10-26 13:36:16.349,30212,210,43,-120850,-37.00124875,8294,2.53941545
2023-10-26 13:36:16.349,30213,120,0,-26759,-8.192936825,-14390,-4.40585825
2023-10-26 13:36:16.349,30214,207,44,115891,35.482926925,-22202,-6.79769735
2023-10-26 13:36:16.349,30215,121,0,16736,5.1241448,450,0.13777875
2023-10-26 13:36:16.349,30216,212,45,-122040,-37.365597,7755,2.374387125
2023-10-26 13:36:16.349,30217,125,0,-129288,-39.5847534,-15494,-4.74387545
2023-10-26 13:36:16.349,30218,209,43,-124227,-38.035201725,-23028,-7.0505979
2023-10-26 13:36:16.349,30219,131,0,-129719,-39.716714825,678,0.20758665
2023-10-26 13:36:16.385,30220,218,44,-131072,-40.1309696,9234,2.82721995
2023-10-26 13:36:16.385,30221,134,0,-131072,-40.1309696,-13406,-4.10458205
2023-10-26 13:36:16.385,30222,218,48,-131072,-40.1309696,-21240,-6.503157
2023-10-26 13:36:16.385,30223,132,0,-131072,-40.1309696,1824,0.5584632
2023-10-26 13:36:16.385,30224,215,49,-131072,-40.1309696,9891,3.028376925
2023-10-26 13:36:16.385,30225,131,0,-131072,-40.1309696,-13229,-4.050389075
2023-10-26 13:36:16.416,30226,214,49,-131072,-40.1309696,-21445,-6.565922875
2023-10-26 13:36:16.416,30227,131,0,-131072,-40.1309696,1796,0.5498903
2023-10-26 13:36:16.416,30228,217,49,-131072,-40.1309696,10510,3.21789925
2023-10-26 13:36:16.416,30229,133,0,-131072,-40.1309696,-12120,-3.710841
2023-10-26 13:36:16.416,30230,215,53,-131072,-40.1309696,-20303,-6.216271025
2023-10-26 13:36:16.452,30231,132,0,-131072,-40.1309696,2857,0.874741975
2023-10-26 13:36:16.452,30232,214,50,-131072,-40.1309696,12272,3.7573796
2023-10-26 13:36:16.452,30233,132,0,-130808,-40.0501394,-14470,-4.43035225
2023-10-26 13:36:16.452,30234,214,52,-128372,-39.3042971,-51106,-15.64737955
2023-10-26 13:36:16.452,30235,130,0,-129248,-39.5725064,-77968,-23.8718524
2023-10-26 13:36:16.452,30236,213,54,-130999,-40.108618825,-96715,-29.611715125
2023-10-26 13:36:16.452,30237,129,0,-129753,-39.727124775,-113012,-34.6014491
2023-10-26 13:36:16.472,30238,210,52,-124744,-38.1934942,-129168,-39.5480124
2023-10-26 13:36:16.472,30239,128,0,-127191,-38.942704425,-143098,-43.81303015
2023-10-26 13:36:16.472,30240,213,52,-130818,-40.05320115,-150618,-46.11546615
2023-10-26 13:36:16.472,30241,128,0,-128431,-39.322361425,-149202,-45.68192235
2023-10-26 13:36:16.472,30242,211,52,-121374,-37.16168445,-140350,-42.97166125
2023-10-26 13:36:16.472,30243,127,0,-124603,-38.150323525,-129090,-39.52413075
2023-10-26 13:36:16.512,30244,214,55,-129987,-39.798769725,-121225,-37.116064375
2023-10-26 13:36:16.512,30245,126,0,-125792,-38.5143656,-120170,-36.79304975
2023-10-26 13:36:16.512,30246,213,55,-118236,-36.2009073,-125349,-38.378730075
2023-10-26 13:36:16.512,30247,126,0,-122193,-37.412441775,-132984,-40.7163762
2023-10-26 13:36:16.512,30248,213,59,-127866,-39.14937255,-138564,-42.4248327
2023-10-26 13:36:16.551,30249,120,0,-122960,-37.647278,-139419,-42.686612325
2023-10-26 13:36:16.551,30250,215,60,-115320,-35.308101,-135632,-41.5271276
2023-10-26 13:36:16.551,30251,117,0,-119007,-36.436968225,-129706,-39.71273455
2023-10-26 13:36:16.551,30252,213,58,-124797,-38.209721475,-125344,-38.3771992
2023-10-26 13:36:16.551,30253,114,0,-120200,-36.802235,-124733,-38.190126275
2023-10-26 13:36:16.551,30254,211,56,-112824,-34.5438882,-126860,-38.8413605
2023-10-26 13:36:16.585,30255,115,0,-116543,-35.682553025,-129446,-39.63312905
2023-10-26 13:36:16.585,30256,211,57,-122489,-37.503069575,-131478,-40.25527665
2023-10-26 13:36:16.585,30257,114,0,-117909,-36.100788075,-132334,-40.51736245
2023-10-26 13:36:16.585,30258,209,55,-110904,-33.9560322,-130776,-40.0403418
2023-10-26 13:36:16.585,30259,113,0,-114710,-35.12133425,-127217,-38.950664975
2023-10-26 13:36:16.585,30260,209,57,-120179,-36.795805325,-124713,-38.184002775
2023-10-26 13:36:16.616,30261,111,0,-115566,-35.38342005,-124712,-38.1836966
2023-10-26 13:36:16.616,30262,205,54,-108732,-33.2910201,-125142,-38.31535185
2023-10-26 13:36:16.616,30263,112,0,-112373,-34.405803275,-124674,-38.17206195
2023-10-26 13:36:16.616,30264,207,56,-117048,-35.8371714,-124548,-38.1334839
2023-10-26 13:36:16.616,30265,109,0,-112555,-34.461527125,-125235,-38.343826125
2023-10-26 13:36:16.616,30266,202,54,-107179,-32.815530325,-124844,-38.2241117
2023-10-26 13:36:16.616,30267,109,0,-110547,-33.846727725,-122851,-37.613904925
2023-10-26 13:36:16.652,30268,203,53,-112885,-34.562564875,-121538,-37.21189715
2023-10-26 13:36:16.652,30269,106,0,-108537,-33.231315975,-121802,-37.29272735
2023-10-26 13:36:16.652,30270,201,52,-107196,-32.8207353,-121305,-37.140558375
2023-10-26 13:36:16.652,30271,111,0,-109852,-33.6339361,-119257,-36.513511975
2023-10-26 13:36:16.652,30272,200,52,-107859,-33.023729325,-117850,-36.08272375
2023-10-26 13:36:16.652,30273,110,0,-105182,-32.20409885,-118280,-36.214379
2023-10-26 13:36:16.652,30274,198,48,-106125,-32.492821875,-118615,-36.316947625
2023-10-26 13:36:16.682,30275,112,0,-107793,-33.003521775,-117828,-36.0759879
2023-10-26 13:36:16.682,30276,196,50,-107331,-32.862068925,-117435,-35.955661125
2023-10-26 13:36:16.682,30277,114,0,-103856,-31.7981108,-117838,-36.07904965
2023-10-26 13:36:16.682,30278,194,44,-101161,-30.972969175,-117209,-35.886465575
2023-10-26 13:36:16.682,30279,119,0,-104414,-31.96895645,-114986,-35.20583855
2023-10-26 13:36:16.712,30280,197,46,-107267,-32.842473725,-113237,-34.670338475
2023-10-26 13:36:16.712,30281,121,0,-102432,-31.3621176,-113324,-34.6969757
2023-10-26 13:36:16.712,30282,196,45,-96895,-29.666826625,-113596,-34.7802553
2023-10-26 13:36:16.742,30283,125,0,-101089,-30.950924575,-113211,-34.662377925
2023-10-26 13:36:16.742,30284,195,47,-105174,-32.20164945,-113042,-34.61063435
2023-10-26 13:36:16.742,30285,122,0,-99788,-30.5525909,-112945,-34.580935375
2023-10-26 13:36:16.742,30286,194,42,-94923,-29.063049525,-111775,-34.222710625
2023-10-26 13:36:16.742,30287,126,0,-99770,-30.54707975,-109923,-33.655674525
2023-10-26 13:36:16.742,30288,193,43,-103657,-31.737181975,-108691,-33.278466925
2023-10-26 13:36:16.772,30289,128,0,-98276,-30.0896543,-108087,-33.093537225
2023-10-26 13:36:16.772,30290,192,41,-92109,-28.201473075,-107751,-32.990662425
2023-10-26 13:36:16.772,30291,126,0,-97507,-29.854205725,-108004,-33.0681247
2023-10-26 13:36:16.772,30292,192,41,-103724,-31.7576957,-108596,-33.2493803
2023-10-26 13:36:16.772,30293,128,0,-97198,-29.75959765,-108573,-33.242338275
2023-10-26 13:36:16.772,30294,188,43,-87819,-26.887982325,-107254,-32.83849345
2023-10-26 13:36:16.772,30295,131,0,-93588,-28.6543059,-105223,-32.216652025
2023-10-26 13:36:16.772,30296,189,39,-103002,-31.53663735,-104117,-31.878022475
2023-10-26 13:36:16.772,30297,132,0,-95218,-29.15337115,-104274,-31.92609195
2023-10-26 13:36:16.802,30298,188,38,-81700,-25.0144975,-104174,-31.89547445
2023-10-26 13:36:16.802,30299,134,0,-89595,-27.431749125,-103344,-31.6413492
2023-10-26 13:36:16.802,30300,186,39,-101107,-30.956435725,-103055,-31.552864625
2023-10-26 13:36:16.802,30301,134,0,-92490,-28.31812575,-103347,-31.642267725
2023-10-26 13:36:16.802,30302,187,40,-81790,-25.04205325,-102494,-31.38110045
2023-10-26 13:36:16.802,30303,137,0,-90153,-27.602594775,-100495,-30.769056625
2023-10-26 13:36:16.802,30304,190,39,-93060,-28.4926455,-99445,-30.447572875
2023-10-26 13:36:16.802,30305,138,0,-83382,-25.52948385,-99796,-30.5550403
2023-10-26 13:36:16.832,30306,184,39,-87856,-26.8993108,-99723,-30.532689525
2023-10-26 13:36:16.832,30307,134,0,-96302,-29.48526485,-98781,-30.244272675
2023-10-26 13:36:16.832,30308,184,39,-63470,-19.43292725,-98679,-30.213042825
2023-10-26 13:36:16.832,30309,138,0,-34438,-10.54405465,-99585,-30.490437375
2023-10-26 13:36:16.832,30310,185,40,-97661,-29.901356675,-99168,-30.3627624
2023-10-26 13:36:16.832,30311,141,0,-90023,-27.562792025,-96899,-29.668051325
2023-10-26 13:36:16.862,30312,193,40,81325,24.899681875,-95456,-29.2262408
2023-10-26 13:36:16.862,30313,151,0,58006,17.75998705,-96230,-29.46322025
2023-10-26 13:36:16.862,30314,202,37,-105344,-32.2536992,-96141,-29.435970675
2023-10-26 13:36:16.862,30315,164,0,-99038,-30.32295965,-93787,-28.715234725
2023-10-26 13:36:16.862,30316,206,37,57542,17.61792185,-92402,-28.29118235
2023-10-26 13:36:16.892,30317,162,0,73288,22.4389534,-93524,-28.6347107
2023-10-26 13:36:16.892,30318,201,38,122574,37.52909445,-93489,-28.623994575
2023-10-26 13:36:16.892,30319,160,0,131071,40.130663425,-91220,-27.9292835
2023-10-26 13:36:16.892,30320,192,39,124936,38.2522798,-89895,-27.523601625
2023-10-26 13:36:16.892,30321,152,0,103054,31.55255845,-89874,-27.51717195
2023-10-26 13:36:16.892,30322,187,38,126824,38.8303382,-89085,-27.275599875
2023-10-26 13:36:16.932,30323,146,0,131071,40.130663425,-89043,-27.262740525
2023-10-26 13:36:16.932,30324,183,13,129651,39.695894925,-89366,-27.36163505
2023-10-26 13:36:16.932,30325,146,0,123691,37.871091925,-83162,-25.46212535
2023-10-26 13:36:16.932,30326,176,38,129888,39.7684584,-73029,-22.359654075
2023-10-26 13:36:16.932,30327,143,0,131071,40.130663425,-74254,-22.73471845
2023-10-26 13:36:16.932,30328,173,39,131071,40.130663425,-70990,-21.73536325
2023-10-26 13:36:16.962,30329,141,0,131071,40.130663425,-39183,-11.996855025
2023-10-26 13:36:16.962,30330,171,38,131071,40.130663425,-10421,-3.190649675
2023-10-26 13:36:16.962,30331,144,0,131071,40.130663425,-19437,-5.951123475
2023-10-26 13:36:16.962,30332,169,34,131071,40.130663425,-33727,-10.326364225
2023-10-26 13:36:16.992,30333,144,0,131071,40.130663425,-17314,-5.30111395
2023-10-26 13:36:16.992,30334,166,34,131071,40.130663425,16504,5.0531122
2023-10-26 13:36:16.992,30335,146,0,131071,40.130663425,49323,15.101469525
2023-10-26 13:36:16.992,30336,164,33,131071,40.130663425,74495,22.808506625
2023-10-26 13:36:16.992,30337,147,0,131071,40.130663425,89797,27.493596475
2023-10-26 13:36:16.992,30338,164,31,131071,40.130663425,101868,31.1894349
2023-10-26 13:36:17.022,30339,145,0,131071,40.130663425,118836,36.3846123
2023-10-26 13:36:17.022,30340,162,32,131071,40.130663425,137686,42.15601105
2023-10-26 13:36:17.022,30341,146,0,131071,40.130663425,148344,45.4192242
2023-10-26 13:36:17.022,30342,159,27,131071,40.130663425,146559,44.872701825
2023-10-26 13:36:17.022,30343,149,0,131071,40.130663425,136051,41.655414925
2023-10-26 13:36:17.022,30344,158,27,131071,40.130663425,123951,37.950697425
2023-10-26 13:36:17.052,30345,148,0,131071,40.130663425,116681,35.724805175
2023-10-26 13:36:17.052,30346,157,26,131071,40.130663425,117696,36.0355728
2023-10-26 13:36:17.052,30347,148,0,131071,40.130663425,125527,38.433229225
2023-10-26 13:36:17.052,30348,155,35,131071,40.130663425,135171,41.385980925
2023-10-26 13:36:17.052,30349,151,0,131071,40.130663425,141256,43.2490558
2023-10-26 13:36:17.082,30350,157,24,131071,40.130663425,141105,43.202823375
2023-10-26 13:36:17.082,30351,151,0,131071,40.130663425,135783,41.573360025
2023-10-26 13:36:17.082,30352,156,22,131071,40.130663425,129010,39.49963675
2023-10-26 13:36:17.112,30353,153,0,131071,40.130663425,124693,38.177879275
2023-10-26 13:36:17.112,30354,154,19,131071,40.130663425,124720,38.186146
2023-10-26 13:36:17.112,30355,155,0,131071,40.130663425,128296,39.2810278
2023-10-26 13:36:17.112,30356,154,21,131071,40.130663425,132829,40.668919075
2023-10-26 13:36:17.112,30357,157,0,131071,40.130663425,135696,41.5467228
2023-10-26 13:36:17.112,30358,153,19,131071,40.130663425,135742,41.56080685
2023-10-26 13:36:17.112,30359,161,0,131071,40.130663425,133563,40.893651525
2023-10-26 13:36:17.142,30360,155,16,131071,40.130663425,130824,40.0550382
2023-10-26 13:36:17.142,30361,161,0,131071,40.130663425,129116,39.5320913
2023-10-26 13:36:17.142,30362,152,17,131071,40.130663425,129016,39.5014738
2023-10-26 13:36:17.142,30363,162,0,131071,40.130663425,130104,39.8345922
2023-10-26 13:36:17.142,30364,152,16,131071,40.130663425,131446,40.24547905
2023-10-26 13:36:17.142,30365,165,0,131071,40.130663425,132259,40.494399325
2023-10-26 13:36:17.142,30366,154,16,131071,40.130663425,132389,40.534202075
2023-10-26 13:36:17.142,30367,166,0,131071,40.130663425,132102,40.44632985
2023-10-26 13:36:17.142,30368,152,16,131071,40.130663425,131762,40.34223035
2023-10-26 13:36:17.182,30369,166,0,131071,40.130663425,131509,40.264768075
2023-10-26 13:36:17.182,30370,153,14,131071,40.130663425,131321,40.207207175
2023-10-26 13:36:17.182,30371,168,0,131071,40.130663425,131199,40.169853825
2023-10-26 13:36:17.182,30372,151,12,130739,40.029013325,131147,40.153932725
2023-10-26 13:36:17.182,30373,170,0,127413,39.010675275,131445,40.245172875
2023-10-26 13:36:17.182,30374,153,8,129943,39.785298025,131489,40.258644575
2023-10-26 13:36:17.182,30375,170,0,131071,40.130663425,131467,40.251908725
2023-10-26 13:36:17.182,30376,151,9,130460,39.9435905,131453,40.247622275
2023-10-26 13:36:17.182,30377,171,0,124487,38.114807225,131490,40.25895075
2023-10-26 13:36:17.182,30378,150,8,126817,38.828194975,131550,40.27732125
2023-10-26 13:36:17.212,30379,169,0,124994,38.27003795,131560,40.280383
2023-10-26 13:36:17.212,30380,147,6,119802,36.68037735,131462,40.25037785
2023-10-26 13:36:17.212,30381,171,0,112740,34.5181695,130884,40.0734087
2023-10-26 13:36:17.212,30382,147,6,114047,34.918340225,130624,39.9938032
2023-10-26 13:36:17.212,30383,171,0,112664,34.4949002,131020,40.1150485
2023-10-26 13:36:17.212,30384,147,5,108775,33.304185625,131686,40.31896105
2023-10-26 13:36:17.212,30385,172,0,103634,31.73013995,132376,40.5302218
2023-10-26 13:36:17.212,30386,148,0,104741,32.069075675,132551,40.583802425
2023-10-26 13:36:17.212,30387,170,0,102400,31.35232,131974,40.40713945
2023-10-26 13:36:17.212,30388,149,7,96997,29.698056475,131107,40.141685725
2023-10-26 13:36:17.242,30389,170,0,91729,28.085126575,130194,39.86214795
2023-10-26 13:36:17.242,30390,144,0,91988,28.1644259,129508,39.6521119
2023-10-26 13:36:17.242,30391,171,0,88933,27.229061275,129859,39.759579325
2023-10-26 13:36:17.242,30392,143,0,81419,24.928462325,131007,40.111068225
2023-10-26 13:36:17.242,30393,170,0,76804,23.5154647,131594,40.29079295
2023-10-26 13:36:17.242,30394,143,0,80126,24.53257805,130886,40.07402105
2023-10-26 13:36:17.272,30395,172,0,78187,23.938904725,129367,39.608941225
2023-10-26 13:36:17.272,30396,143,0,69622,21.31651585,127276,38.9687293
2023-10-26 13:36:17.272,30397,173,0,66795,20.450959125,124171,38.018055925
2023-10-26 13:36:17.272,30398,141,0,73656,22.5516258,120724,36.9626707
2023-10-26 13:36:17.272,30399,174,0,73459,22.491309325,118338,36.23213715
2023-10-26 13:36:17.302,30400,141,0,66023,20.214592025,116773,35.752973275
2023-10-26 13:36:17.302,30401,171,0,63750,19.51865625,114491,35.054281925
2023-10-26 13:36:17.302,30402,140,0,69435,21.259261125,111112,34.0197166
2023-10-26 13:36:17.302,30403,175,0,69130,21.16587775,107645,32.958207875
2023-10-26 13:36:17.302,30404,141,0,60638,18.56583965,104451,31.980284925
2023-10-26 13:36:17.302,30405,174,0,58586,17.93756855,101111,30.957660425
2023-10-26 13:36:17.302,30406,139,0,65340,20.0054745,97994,30.00331295
2023-10-26 13:36:17.302,30407,175,0,65619,20.090897325,95804,29.3327897
2023-10-26 13:36:17.332,30408,139,0,57643,17.648845525,93740,28.7008445
2023-10-26 13:36:17.332,30409,176,0,55087,16.866262225,90309,27.650358075
2023-10-26 13:36:17.332,30410,141,0,61464,18.8187402,86002,26.33166235
2023-10-26 13:36:17.332,30411,176,0,61073,18.699025775,82445,25.242597875
2023-10-26 13:36:17.332,30412,139,0,52682,16.12991135,79337,24.291005975
2023-10-26 13:36:17.332,30413,177,0,49895,15.276601625,75550,23.13152125
2023-10-26 13:36:17.362,30414,139,0,55769,17.075073575,72356,22.1535983
2023-10-26 13:36:17.362,30415,176,0,56980,17.4458515,71550,21.90682125
2023-10-26 13:36:17.362,30416,139,0,53172,16.2799371,71777,21.976322975
2023-10-26 13:36:17.362,30417,180,0,52631,16.114296425,70709,21.649328075
2023-10-26 13:36:17.362,30418,137,0,55913,17.119162775,68910,21.09851925
2023-10-26 13:36:17.392,30419,184,0,56310,17.24071425,68141,20.863070675
2023-10-26 13:36:17.392,30420,137,0,53681,16.435780175,67692,20.7255981
2023-10-26 13:36:17.392,30421,184,0,53432,16.3595426,65950,20.19224125
2023-10-26 13:36:17.392,30422,134,0,54978,16.83288915,64003,19.596118525
2023-10-26 13:36:17.432,30423,181,0,54571,16.708275925,63693,19.501204275
2023-10-26 13:36:17.432,30424,134,0,52827,16.174306725,63913,19.568562775
2023-10-26 13:36:17.432,30425,180,0,52770,16.15685475,62641,19.179108175
2023-10-26 13:36:17.432,30426,134,0,54336,16.6363248,60693,18.582679275
2023-10-26 13:36:17.432,30427,182,0,54122,16.57080335,60017,18.375704975
2023-10-26 13:36:17.432,30428,133,0,52193,15.980191775,59809,18.312020575
2023-10-26 13:36:17.432,30429,182,0,52227,15.990601725,58233,17.829488775
2023-10-26 13:36:17.432,30430,134,0,52891,16.193901925,56095,17.174886625
2023-10-26 13:36:17.432,30431,182,0,52481,16.068370175,55266,16.92106755
2023-10-26 13:36:17.432,30432,132,0,50694,15.52123545,55282,16.92596635
2023-10-26 13:36:17.462,30433,184,0,50558,15.47959565,54774,16.77042945
2023-10-26 13:36:17.462,30434,132,0,50540,15.4740845,54073,16.555800775
2023-10-26 13:36:17.462,30435,183,3,50014,15.31303645,54146,16.57815155
2023-10-26 13:36:17.462,30436,132,0,48541,14.862040675,54673,16.739505775
2023-10-26 13:36:17.462,30437,182,1,47945,14.679560375,54880,16.802884
2023-10-26 13:36:17.462,30438,133,0,47807,14.637308225,54900,16.8090075
2023-10-26 13:36:17.462,30439,185,1,46687,14.294392225,54957,16.826459475
2023-10-26 13:36:17.462,30440,132,0,45245,13.852887875,54699,16.747466325
2023-10-26 13:36:17.492,30441,185,5,45113,13.812472775,54577,16.710112975
2023-10-26 13:36:17.492,30442,133,0,44655,13.672244625,54474,16.67857695
2023-10-26 13:36:17.492,30443,186,3,43750,13.39515625,54348,16.6399989
2023-10-26 13:36:17.492,30444,136,0,42018,12.86486115,54265,16.614586375
2023-10-26 13:36:17.492,30445,188,5,41654,12.75341345,54226,16.60264555
2023-10-26 13:36:17.492,30446,136,0,41783,12.792910025,54157,16.581519475
2023-10-26 13:36:17.522,30447,187,7,40714,12.46560895,54030,16.54263525
2023-10-26 13:36:17.522,30448,136,0,39505,12.095443375,53863,16.491504025
2023-10-26 13:36:17.522,30449,188,5,39072,11.9628696,53645,16.424757875
2023-10-26 13:36:17.522,30450,137,0,38419,11.762937325,53180,16.2823865
2023-10-26 13:36:17.552,30451,188,7,37266,11.40991755,52660,16.1231755
2023-10-26 13:36:17.552,30452,141,0,35943,11.004848025,51986,15.91681355
2023-10-26 13:36:17.552,30453,189,9,35693,10.928304275,51117,15.650747475
2023-10-26 13:36:17.552,30454,141,0,35360,10.826348,50227,15.378251725
2023-10-26 13:36:17.552,30455,188,10,34748,10.6389689,49442,15.13790435
2023-10-26 13:36:17.552,30456,142,0,33504,10.2580872,48611,14.883472925
2023-10-26 13:36:17.552,30457,190,11,32231,9.868326425,47675,14.596893125
2023-10-26 13:36:17.582,30458,143,0,32969,10.094283575,46828,14.3375629
2023-10-26 13:36:17.582,30459,190,12,33079,10.127962825,46123,14.121709525
2023-10-26 13:36:17.582,30460,143,0,30762,9.41855535,45364,13.8893227
2023-10-26 13:36:17.582,30461,193,13,27917,8.547487475,44424,13.6015182
2023-10-26 13:36:17.582,30462,144,0,29864,9.1436102,43515,13.323205125
2023-10-26 13:36:17.582,30463,191,14,31144,9.5355142,42803,13.105208525
2023-10-26 13:36:17.612,30464,142,0,28836,8.8288623,42111,12.893335425
2023-10-26 13:36:17.612,30465,192,13,26351,8.068017425,41345,12.658805375
2023-10-26 13:36:17.612,30466,144,0,27937,8.553610975,40620,12.4368285
2023-10-26 13:36:17.612,30467,193,14,28637,8.767933475,39945,12.230160375
2023-10-26 13:36:17.612,30468,144,0,26661,8.162931675,39174,11.99409945
2023-10-26 13:36:17.642,30469,193,15,25453,7.793072275,38278,11.71976665
2023-10-26 13:36:17.642,30470,146,0,26071,7.982288425,37418,11.45645615
2023-10-26 13:36:17.642,30471,194,17,25780,7.8931915,36671,11.227743425
2023-10-26 13:36:17.682,30472,145,0,23856,7.3041108,35951,11.007297425
2023-10-26 13:36:17.682,30473,196,17,22604,6.9207797,35132,10.7565401
2023-10-26 13:36:17.712,30474,146,0,22205,6.798615875,34309,10.504558075
2023-10-26 13:36:17.712,30475,195,18,21627,6.621646725,33797,10.347796475
2023-10-26 13:36:17.712,30476,144,0,20068,6.1443199,33486,10.25257605
2023-10-26 13:36:17.712,30477,195,17,19189,5.875192075,32787,10.038559725
2023-10-26 13:36:17.712,30478,147,0,19375,5.932140625,31679,9.699317825
2023-10-26 13:36:17.742,30479,196,19,18796,5.7548653,30929,9.469686575
2023-10-26 13:36:17.742,30480,147,0,17500,5.3580625,30667,9.389468725
2023-10-26 13:36:17.742,30481,197,19,16597,5.081586475,30155,9.232707125
2023-10-26 13:36:17.742,30482,147,0,17058,5.22273315,29279,8.964497825
2023-10-26 13:36:17.742,30483,201,22,17459,5.345509325,28708,8.7896719
2023-10-26 13:36:17.772,30484,147,0,15128,4.6318154,28524,8.7333357
2023-10-26 13:36:17.772,30485,196,23,13942,4.26869185,28181,8.628317675
2023-10-26 13:36:17.772,30486,149,0,15324,4.6918257,27626,8.45839055
2023-10-26 13:36:17.772,30487,202,20,15662,4.79531285,27193,8.325816775
2023-10-26 13:36:17.772,30488,148,0,13746,4.20868155,26813,8.209470275
2023-10-26 13:36:17.802,30489,199,21,12384,3.7916712,26141,8.003720675
2023-10-26 13:36:17.802,30490,148,0,13661,4.182656675,25215,7.720202625
2023-10-26 13:36:17.802,30491,203,23,13683,4.189392525,24321,7.446482175
2023-10-26 13:36:17.802,30492,148,0,11469,3.511521075,23460,7.1828655
2023-10-26 13:36:17.802,30493,201,24,9740,2.9821445,22445,6.872097875
2023-10-26 13:36:17.802,30494,150,0,10599,3.245148825,21385,6.547552375
2023-10-26 13:36:17.802,30495,205,24,10586,3.24116855,20515,6.281180125
2023-10-26 13:36:17.802,30496,146,0,7944,2.4322542,19775,6.054610625
2023-10-26 13:36:17.802,30497,205,25,5564,1.7035577,18988,5.8136509
2023-10-26 13:36:17.832,30498,146,0,4815,1.474232625,18243,5.585550525
2023-10-26 13:36:17.832,30499,209,25,2682,0.82116135,17812,5.4535891
2023-10-26 13:36:17.832,30500,145,0,-2450,-0.75012875,17573,5.380413275
2023-10-26 13:36:17.832,30501,210,28,-5443,-1.666510525,17043,5.218140525
2023-10-26 13:36:17.832,30502,145,0,-6654,-2.03728845,16317,4.995857475
2023-10-26 13:36:17.832,30503,212,25,-9230,-2.82599525,15900,4.8681825
2023-10-26 13:36:17.832,30504,144,0,-13592,-4.1615306,15714,4.81123395
2023-10-26 13:36:17.832,30505,214,27,-16814,-5.14802645,15298,4.68386515
2023-10-26 13:36:17.862,30506,143,0,-16346,-5.00473655,14704,4.5019972
2023-10-26 13:36:17.862,30507,217,28,-16422,-5.02800585,14350,4.39361125
2023-10-26 13:36:17.862,30508,144,0,-18740,-5.7377195,14142,4.32992685
2023-10-26 13:36:17.862,30509,218,28,-19639,-6.012970825,13628,4.1725529
2023-10-26 13:36:17.862,30510,146,0,-17767,-5.439811225,12814,3.92332645
2023-10-26 13:36:17.862,30511,220,27,-16960,-5.192728,12139,3.716658325
2023-10-26 13:36:17.862,30512,141,0,-18972,-5.8087521,11564,3.5406077
2023-10-26 13:36:17.892,30513,220,28,-20283,-6.210147525,10590,3.24239325
2023-10-26 13:36:17.892,30514,139,0,-18441,-5.646173175,9158,2.80395065
2023-10-26 13:36:17.892,30515,222,29,-16869,-5.164866075,7635,2.337646125
2023-10-26 13:36:17.892,30516,137,0,-18123,-5.548809525,5863,1.795104025
2023-10-26 13:36:17.892,30517,223,30,-18242,-5.58524435,3377,1.033952975
2023-10-26 13:36:17.892,30518,136,0,-15018,-4.59813615,472,0.1445146
2023-10-26 13:36:17.892,30519,224,30,-12835,-3.929756125,-2314,-0.70848895
2023-10-26 13:36:17.892,30520,136,0,-13345,-4.085905375,-5135,-1.572208625
2023-10-26 13:36:17.932,30521,222,30,-13557,-4.150814475,-8365,-2.561153875
2023-10-26 13:36:17.932,30522,133,0,-9869,-3.021641075,-11644,-3.5651017
2023-10-26 13:36:17.932,30523,221,30,-6585,-2.016162375,-14139,-4.329008325
2023-10-26 13:36:17.932,30524,133,0,-6577,-2.013712975,-15802,-4.83817735
2023-10-26 13:36:17.932,30525,222,32,-5746,-1.75928155,-17204,-5.2674347
2023-10-26 13:36:17.932,30526,130,0,-614,-0.18799145,-18306,-5.60483955
2023-10-26 13:36:17.932,30527,220,34,2984,0.9136262,-18656,-5.7120008
2023-10-26 13:36:17.962,30528,127,0,3101,0.949448675,-18502,-5.66484985
2023-10-26 13:36:17.962,30529,222,35,3940,1.2063295,-18560,-5.682608
2023-10-26 13:36:17.962,30530,128,0,7475,2.288658125,-18837,-5.767418475
2023-10-26 13:36:17.962,30531,223,35,9706,2.97173455,-18722,-5.73220835
2023-10-26 13:36:17.962,30532,127,0,8524,2.6098357,-18251,-5.587999925
2023-10-26 13:36:17.962,30533,223,34,7875,2.411128125,-18058,-5.52890815
2023-10-26 13:36:17.962,30534,127,0,10385,3.179627375,-18181,-5.566567675
2023-10-26 13:36:17.962,30535,220,34,11271,3.450898425,-18326,-5.61096305
2023-10-26 13:36:17.962,30536,128,0,8924,2.7323057,-18225,-5.580039375
2023-10-26 13:36:17.992,30537,222,35,7652,2.3428511,-16464,-5.0408652
2023-10-26 13:36:17.992,30538,127,0,9501,2.908968675,-15082,-4.61773135
2023-10-26 13:36:17.992,30539,219,36,10396,3.1829953,-13344,-4.0855992
2023-10-26 13:36:17.992,30540,124,0,7600,2.32693,-11150,-3.41385125
2023-10-26 13:36:17.992,30541,219,36,5548,1.6986589,-9259,-2.834874325
2023-10-26 13:36:17.992,30542,126,0,7092,2.1713931,-7637,-2.338258475
2023-10-26 13:36:17.992,30543,215,39,7761,2.376224175,-5471,-1.675083425
2023-10-26 13:36:17.992,30544,123,0,5393,1.651201775,-2810,-0.86035175
2023-10-26 13:36:17.992,30545,216,37,3434,1.05140495,-424,-0.1298182
2023-10-26 13:36:18.022,30546,124,0,5095,1.559961625,1655,0.506719625
2023-10-26 13:36:18.022,30547,216,37,6326,1.93686305,3951,1.209697425
2023-10-26 13:36:18.022,30548,122,0,4065,1.244601375,6250,1.91359375
2023-10-26 13:36:18.022,30549,213,40,2465,0.754721375,7774,2.38020445
2023-10-26 13:36:18.022,30550,120,0,4145,1.269095375,8548,2.6171839
2023-10-26 13:36:18.022,30551,213,40,5087,1.557512225,9266,2.83701755
2023-10-26 13:36:18.022,30552,119,0,2813,0.861270275,9884,3.0262337
2023-10-26 13:36:18.022,30553,214,41,919,0.281374825,9844,3.0139867
2023-10-26 13:36:18.052,30554,122,0,2372,0.7262471,9376,2.8706968
2023-10-26 13:36:18.052,30555,212,43,3811,1.166832925,9232,2.8266076
2023-10-26 13:36:18.052,30556,119,0,2086,0.63868105,9323,2.854469525
2023-10-26 13:36:18.052,30557,211,43,926,0.28351805,8957,2.742409475
2023-10-26 13:36:18.082,30558,119,0,2548,0.7801339,8644,2.6465767
2023-10-26 13:36:18.082,30559,209,45,4345,1.330330375,9018,2.76108615
2023-10-26 13:36:18.082,30560,118,0,3105,0.950673375,8722,2.67045835
2023-10-26 13:36:18.142,30561,209,44,1577,0.482837975,7843,2.401330525
2023-10-26 13:36:18.142,30562,118,0,3128,0.9577154,6700,2.0513725
2023-10-26 13:36:18.142,30563,206,48,5175,1.584455625,5991,1.834294425
2023-10-26 13:36:18.182,30564,116,0,4020,1.2308235,5768,1.7660174
2023-10-26 13:36:18.182,30565,206,47,3285,1.005784875,5379,1.646915325
2023-10-26 13:36:18.182,30566,112,0,5378,1.64660915,4776,1.4622918
2023-10-26 13:36:18.182,30567,203,49,7686,2.35326105,4536,1.3888098
2023-10-26 13:36:18.182,30568,112,0,6637,2.032083475,4616,1.4133038
2023-10-26 13:36:18.182,30569,205,50,5501,1.684268675,4413,1.351150275
2023-10-26 13:36:18.182,30570,111,0,7094,2.17200545,3916,1.1989813
2023-10-26 13:36:18.182,30571,202,54,8724,2.6710707,3656,1.1193758
2023-10-26 13:36:18.212,30572,111,0,7378,2.25895915,3677,1.125805475
2023-10-26 13:36:18.212,30573,202,52,6020,1.8431735,3498,1.07100015
2023-10-26 13:36:18.212,30574,125,0,7038,2.15485965,3136,0.9601648
2023-10-26 13:36:18.212,30575,202,57,8940,2.7372045,3029,0.927404075
2023-10-26 13:36:18.212,30576,110,0,7703,2.358466025,3071,0.940263425
2023-10-26 13:36:18.212,30577,200,56,6227,1.906551725,2939,0.899848325
2023-10-26 13:36:18.212,30578,108,0,7271,2.226198425,2823,0.864332025
2023-10-26 13:36:18.242,30579,199,57,8817,2.699544975,2711,0.830040425
2023-10-26 13:36:18.242,30580,108,0,6682,2.04586135,2673,0.818405775
2023-10-26 13:36:18.242,30581,199,58,4717,1.444227475,2731,0.836163925
2023-10-26 13:36:18.242,30582,106,0,5433,1.663448775,2833,0.867393775
2023-10-26 13:36:18.242,30583,198,58,6635,2.031471125,2973,0.910258275
2023-10-26 13:36:18.272,30584,104,0,4519,1.383604825,3625,1.109884375
2023-10-26 13:36:18.272,30585,199,60,2060,0.6307205,4568,1.3986074
2023-10-26 13:36:18.272,30586,106,0,2995,0.916994125,5085,1.556899875
2023-10-26 13:36:18.272,30587,197,60,4560,1.396158,5667,1.735093725
2023-10-26 13:36:18.302,30588,104,0,3487,1.067632225,6434,1.96992995
2023-10-26 13:36:18.302,30589,197,63,2130,0.65215275,6873,2.104340775
2023-10-26 13:36:18.302,30590,101,0,3232,0.9895576,6835,2.092706125
2023-10-26 13:36:18.302,30591,199,61,5175,1.584455625,6829,2.090869075
2023-10-26 13:36:18.332,30592,101,0,3821,1.169894675,7034,2.15363495
2023-10-26 13:36:18.332,30593,199,64,2270,0.69501725,7055,2.160064625
2023-10-26 13:36:18.332,30594,99,0,3561,1.090289175,6875,2.104953125
2023-10-26 13:36:18.332,30595,194,61,5647,1.728970225,7054,2.15975845
2023-10-26 13:36:18.332,30596,100,0,4215,1.290527625,7215,2.209052625
2023-10-26 13:36:18.332,30597,198,62,2618,0.80156615,7342,2.24793685
2023-10-26 13:36:18.362,30598,99,0,4070,1.24613225,7376,2.2583468
2023-10-26 13:36:18.362,30599,197,60,6566,2.01034505,7303,2.235996025
2023-10-26 13:36:18.362,30600,102,0,5509,1.686718075,7180,2.1983365
2023-10-26 13:36:18.362,30601,197,61,4194,1.28409795,7021,2.149654675
2023-10-26 13:36:18.392,30602,98,0,5571,1.705700925,6259,1.916349325
2023-10-26 13:36:18.392,30603,198,61,8275,2.533598125,4997,1.529956475
2023-10-26 13:36:18.392,30604,100,0,7705,2.359078375,4463,1.366459025
2023-10-26 13:36:18.392,30605,201,59,6816,2.0868888,4118,1.26082865
2023-10-26 13:36:18.392,30606,98,0,8550,2.61779625,3688,1.1291734
2023-10-26 13:36:18.392,30607,199,58,11831,3.622356425,3549,1.086615075
2023-10-26 13:36:18.392,30608,98,0,11378,3.48365915,3803,1.164383525
2023-10-26 13:36:18.432,30609,196,58,10122,3.09910335,3924,1.2014307
2023-10-26 13:36:18.432,30610,97,0,11362,3.47876035,3827,1.171731725
2023-10-26 13:36:18.432,30611,194,55,14894,4.56017045,3765,1.152748875
2023-10-26 13:36:18.432,30612,95,0,13782,4.21970385,3616,1.1071288
2023-10-26 13:36:18.432,30613,197,56,11521,3.527442175,3578,1.09549415
2023-10-26 13:36:18.432,30614,96,0,10194,3.12114795,3587,1.098249725
2023-10-26 13:36:18.432,30615,194,55,12497,3.826268975,3614,1.10651645
2023-10-26 13:36:18.462,30616,97,0,10203,3.123903525,3703,1.133766025
2023-10-26 13:36:18.462,30617,194,55,6850,2.09729875,3864,1.1830602
2023-10-26 13:36:18.462,30618,98,0,5724,1.7525457,4036,1.2357223
2023-10-26 13:36:18.462,30619,190,52,6877,2.105565475,4198,1.28532265
2023-10-26 13:36:18.462,30620,99,0,4639,1.420345825,4411,1.350537925
2023-10-26 13:36:18.492,30621,192,52,2088,0.6392934,5125,1.569146875
2023-10-26 13:36:18.492,30622,98,0,2034,0.62275995,5838,1.78744965
2023-10-26 13:36:18.492,30623,190,54,4500,1.3777875,6642,2.03361435
2023-10-26 13:36:18.522,30624,101,0,3665,1.122131375,7891,2.416026925
2023-10-26 13:36:18.552,30625,188,55,2735,0.837388625,9057,2.773026975
2023-10-26 13:36:18.552,30626,100,0,3983,1.219495025,9713,2.973877775
2023-10-26 13:36:18.552,30627,184,50,7343,2.248243025,10423,3.191262025
2023-10-26 13:36:18.552,30628,104,0,8397,2.570951475,11562,3.53999535
2023-10-26 13:36:18.582,30629,187,49,8063,2.468689025,12467,3.817083725
2023-10-26 13:36:18.582,30630,105,0,7277,2.228035475,12519,3.833004825
2023-10-26 13:36:18.582,30631,185,46,10246,3.13706905,12167,3.725231225
2023-10-26 13:36:18.582,30632,106,0,11622,3.55836585,11978,3.66736415
2023-10-26 13:36:18.582,30633,183,48,13776,4.2178668,11554,3.53754595
2023-10-26 13:36:18.612,30634,107,0,14962,4.58099035,10736,3.2870948
2023-10-26 13:36:18.612,30635,183,46,18327,5.611269225,9824,3.0078632
2023-10-26 13:36:18.612,30636,109,0,26147,8.005557725,8514,2.60677395
2023-10-26 13:36:18.612,30637,182,45,80948,24.7842539,7030,2.15241025
2023-10-26 13:36:18.642,30638,92,0,42810,13.10735175,5317,1.627932475
2023-10-26 13:36:18.642,30639,178,43,-113638,-34.79311465,4001,1.225006175
2023-10-26 13:36:18.642,30640,113,0,-100288,-30.7056784,3516,1.0765113
2023-10-26 13:36:18.642,30641,179,43,69901,21.401938675,3369,1.031503575
2023-10-26 13:36:18.642,30642,112,0,42895,13.133376625,3187,0.975779725
2023-10-26 13:36:18.642,30643,179,40,-114141,-34.947120675,3399,1.040688825
2023-10-26 13:36:18.642,30644,114,0,-101471,-31.067883425,4313,1.320532775
2023-10-26 13:36:18.642,30645,179,40,68022,20.82663585,5425,1.660999375
2023-10-26 13:36:18.682,30646,116,0,44025,13.479354375,6077,1.860625475
2023-10-26 13:36:18.682,30647,177,39,-113491,-34.748106925,6585,2.016162375
2023-10-26 13:36:18.682,30648,118,0,-101965,-31.219133875,7657,2.344381975
2023-10-26 13:36:18.682,30649,178,41,67121,20.550772175,9195,2.815279125
2023-10-26 13:36:18.682,30650,117,0,44080,13.496194,10757,3.293524475
2023-10-26 13:36:18.682,30651,174,40,-113174,-34.65104945,12402,3.79718235
2023-10-26 13:36:18.682,30652,121,0,-101915,-31.203825125,14040,4.298697
2023-10-26 13:36:18.682,30653,176,40,67172,20.5663871,19796,6.0610403
2023-10-26 13:36:18.682,30654,121,0,44614,13.65969145,33456,10.2433908
2023-10-26 13:36:18.682,30655,172,38,-112529,-34.453566575,34616,10.5985538
2023-10-26 13:36:18.682,30656,117,0,-102440,-31.364567,5297,1.621808975
2023-10-26 13:36:18.682,30657,172,41,61205,18.739440875,-20584,-6.3023062
2023-10-26 13:36:18.682,30658,120,0,15579,4.769900325,-10659,-3.263519325
2023-10-26 13:36:18.712,30659,169,39,-117706,-36.03863455,-122,-0.03735335
2023-10-26 13:36:18.712,30660,122,0,-102737,-31.455500975,-25026,-7.66233555
2023-10-26 13:36:18.712,30661,170,40,56621,17.335934675,-51289,-15.703409575
2023-10-26 13:36:18.712,30662,120,0,5725,1.752851875,-39445,-12.077072875
2023-10-26 13:36:18.712,30663,167,39,-117307,-35.916470725,-19128,-5.8565154
2023-10-26 13:36:18.712,30664,124,0,-103877,-31.804540475,-28063,-8.592189025
2023-10-26 13:36:18.712,30665,168,41,53084,16.2529937,-39085,-11.966849875
2023-10-26 13:36:18.712,30666,126,0,3250,0.99506875,-19768,-6.0524674
2023-10-26 13:36:18.712,30667,171,40,-116810,-35.76430175,-2489,-0.762069575
2023-10-26 13:36:18.712,30668,130,0,-104454,-31.98120345,-22164,-6.7860627
2023-10-26 13:36:18.712,30669,172,40,52303,16.013871025,-45245,-13.852887875
2023-10-26 13:36:18.712,30670,139,0,4633,1.418508775,-32823,-10.049582025
2023-10-26 13:36:18.742,30671,177,41,-116068,-35.5371199,-14207,-4.349828225
2023-10-26 13:36:18.742,30672,145,0,-105274,-32.23226695,-26374,-8.07505945
2023-10-26 13:36:18.742,30673,183,39,51839,15.871805825,-40861,-12.510616675
2023-10-26 13:36:18.742,30674,152,0,7261,2.223136675,-26009,-7.963305575
2023-10-26 13:36:18.742,30675,193,39,-115620,-35.3999535,-13155,-4.027732125
2023-10-26 13:36:18.742,30676,165,0,-105893,-32.421789275,-32296,-9.8882278
2023-10-26 13:36:18.742,30677,201,36,52232,15.9921326,-51391,-15.734639425
2023-10-26 13:36:18.742,30678,178,0,10946,3.35139155,-39711,-12.158515425
2023-10-26 13:36:18.772,30679,211,36,-115238,-35.28299465,-27235,-8.338676125
2023-10-26 13:36:18.772,30680,192,0,-106839,-32.711430825,-42313,-12.955182775
2023-10-26 13:36:18.772,30681,223,34,51364,15.7263727,-55449,-16.977097575
2023-10-26 13:36:18.772,30682,205,0,14815,4.535982625,-39443,-12.076460525
2023-10-26 13:36:18.772,30683,231,32,-113967,-34.893846225,-25086,-7.68070605
2023-10-26 13:36:18.772,30684,214,0,-107519,-32.919629825,-40401,-12.369776175
2023-10-26 13:36:18.772,30685,235,30,50398,15.43060765,-55283,-16.926272525
2023-10-26 13:36:18.772,30686,218,0,16862,5.16272285,-41244,-12.6278817
2023-10-26 13:36:18.772,30687,237,30,-113087,-34.624412225,-27675,-8.473393125
2023-10-26 13:36:18.772,30688,222,0,-108212,-33.1318091,-42564,-13.0320327
2023-10-26 13:36:18.802,30689,238,29,49193,15.061666775,-56522,-17.30562335
2023-10-26 13:36:18.802,30690,221,0,18822,5.76282585,-41187,-12.610429725
2023-10-26 13:36:18.802,30691,234,28,-111613,-34.173110275,-26084,-7.9862687
2023-10-26 13:36:18.802,30692,219,0,-108632,-33.2604026,-40209,-12.310990575
2023-10-26 13:36:18.802,30693,228,25,48530,14.85867275,-54445,-16.669697875
2023-10-26 13:36:18.802,30694,214,0,20168,6.1749374,-39646,-12.13861405
2023-10-26 13:36:18.802,30695,220,27,-110852,-33.9401111,-24978,-7.64763915
2023-10-26 13:36:18.802,30696,208,0,-109206,-33.43614705,-39979,-12.240570325
2023-10-26 13:36:18.802,30697,210,23,47331,14.491568925,-55397,-16.961176475
2023-10-26 13:36:18.802,30698,197,0,21813,6.678595275,-40850,-12.50724875
2023-10-26 13:36:18.832,30699,198,24,-109189,-33.430942075,-24941,-7.636310675
2023-10-26 13:36:18.832,30700,185,0,-109579,-33.550350325,-38401,-11.757426175
2023-10-26 13:36:18.832,30701,181,22,45815,14.027407625,-53107,-16.260035725
2023-10-26 13:36:18.832,30702,172,0,21246,6.50499405,-38575,-11.810700625
2023-10-26 13:36:18.832,30703,166,21,-108011,-33.070267925,-23106,-7.07447955
2023-10-26 13:36:18.832,30704,162,0,-110188,-33.7368109,-37677,-11.535755475
2023-10-26 13:36:18.832,30705,157,16,43586,13.34494355,-54040,-16.545697
2023-10-26 13:36:18.832,30706,153,0,20460,6.2643405,-40524,-12.4074357
2023-10-26 13:36:18.832,30707,150,18,-106695,-32.667341625,-24487,-7.497307225
2023-10-26 13:36:18.832,30708,150,0,-110416,-33.8066188,-37485,-11.476969875
2023-10-26 13:36:18.832,30709,148,19,42559,13.030501825,-52510,-16.07724925
2023-10-26 13:36:18.862,30710,152,0,20787,6.364459725,-38352,-11.7424236
2023-10-26 13:36:18.862,30711,145,19,-104749,-32.071525075,-22391,-6.855564425
2023-10-26 13:36:18.862,30712,151,0,-111331,-34.086768925,-36376,-11.1374218
2023-10-26 13:36:18.862,30713,143,16,40421,12.375899675,-53072,-16.2493196
2023-10-26 13:36:18.862,30714,149,0,21428,6.5607179,-40140,-12.2898645
2023-10-26 13:36:18.862,30715,143,14,-103615,-31.724322625,-23926,-7.32554305
2023-10-26 13:36:18.862,30716,153,0,-111555,-34.155352125,-36559,-11.193451825
2023-10-26 13:36:18.862,30717,145,17,40241,12.320788175,-52015,-15.925692625
2023-10-26 13:36:18.862,30718,156,0,23291,7.131121925,-38598,-11.81774265
2023-10-26 13:36:18.862,30719,141,13,-102011,-31.233217925,-22525,-6.896591875
2023-10-26 13:36:18.862,30720,160,0,-112227,-34.361101725,-35809,-10.963820575
2023-10-26 13:36:18.892,30721,143,13,39024,11.9481732,-52565,-16.094088875
2023-10-26 13:36:18.892,30722,158,0,25178,7.70887415,-40544,-12.4135592
2023-10-26 13:36:18.892,30723,142,12,-100978,-30.91693915,-24806,-7.59497705
2023-10-26 13:36:18.892,30724,157,0,-112859,-34.554604325,-37118,-11.36460365
2023-10-26 13:36:18.892,30725,142,7,38155,11.682107125,-52629,-16.113684075
2023-10-26 13:36:18.892,30726,161,0,27253,8.344187275,-39843,-12.198930525
2023-10-26 13:36:18.892,30727,142,8,-100273,-30.701085775,-23724,-7.2636957
2023-10-26 13:36:18.892,30728,163,0,-113614,-34.78576645,-36127,-11.061184225
2023-10-26 13:36:18.892,30729,139,4,36628,11.2145779,-52584,-16.0999062
2023-10-26 13:36:18.892,30730,164,0,28736,8.7982448,-40930,-12.53174275
2023-10-26 13:36:18.932,30731,141,5,-99475,-30.456758125,-24976,-7.6470268
2023-10-26 13:36:18.932,30732,166,0,-114057,-34.921401975,-36682,-11.23111135
2023-10-26 13:36:18.932,30733,139,5,35921,10.998112175,-52408,-16.0460194
2023-10-26 13:36:18.932,30734,164,0,30926,9.46876805,-40205,-12.309765875
2023-10-26 13:36:18.932,30735,140,6,-98224,-30.0737332,-23770,-7.27777975
2023-10-26 13:36:18.932,30736,167,0,-114453,-35.042647275,-35442,-10.85145435
2023-10-26 13:36:18.932,30737,142,3,35827,10.969331725,-51870,-15.88129725
2023-10-26 13:36:18.932,30738,170,0,34192,10.4687356,-40381,-12.363652675
2023-10-26 13:36:18.932,30739,141,3,-97651,-29.898294925,-23876,-7.3102343
2023-10-26 13:36:18.932,30740,168,0,-114655,-35.104494625,-35121,-10.753172175
2023-10-26 13:36:18.962,30741,144,1,35859,10.979129325,-51448,-15.7520914
2023-10-26 13:36:18.962,30742,176,0,36735,11.247338625,-39944,-12.2298542
2023-10-26 13:36:18.962,30743,150,0,-96456,-29.5324158,-23174,-7.09529945
2023-10-26 13:36:18.962,30744,188,0,-115887,-35.481702225,-34381,-10.526602675
2023-10-26 13:36:18.962,30745,173,0,33117,10.139597475,-51238,-15.68779465
2023-10-26 13:36:18.962,30746,215,0,40712,12.4649966,-40260,-12.3266055
2023-10-26 13:36:18.962,30747,204,0,-94437,-28.914248475,-23400,-7.164495
2023-10-26 13:36:18.992,30748,244,0,-116338,-35.61978715,-34261,-10.489861675
2023-10-26 13:36:18.992,30749,230,0,31955,9.783822125,-51088,-15.6418684
2023-10-26 13:36:18.992,30750,272,0,42511,13.015805425,-40113,-12.281597775
2023-10-26 13:36:18.992,30751,259,0,-92831,-28.422531425,-22896,-7.0101828
2023-10-26 13:36:18.992,30752,298,0,-130809,-40.050445575,-33478,-10.25012665
2023-10-26 13:36:18.992,30753,280,0,-112288,-34.3797784,-50513,-15.465817775
2023-10-26 13:36:19.022,30754,316,0,-65079,-19.925562825,-39622,-12.13126585
2023-10-26 13:36:19.022,30755,294,0,-102207,-31.293228225,-22011,-6.739217925
2023-10-26 13:36:19.022,30756,330,0,-112326,-34.39141305,-32406,-9.92190705
2023-10-26 13:36:19.022,30757,310,0,-49039,-15.014515825,-49700,-15.2168975
2023-10-26 13:36:19.022,30758,345,0,-1471,-0.450383425,-38930,-11.91939275
2023-10-26 13:36:19.052,30759,326,0,-54303,-16.626221025,-21033,-6.439778775
2023-10-26 13:36:19.052,30760,362,0,-77484,-23.7236637,-31279,-9.576847825
2023-10-26 13:36:19.052,30761,342,0,-28638,-8.76823965,-49173,-15.055543275
2023-10-26 13:36:19.052,30762,377,0,5465,1.673246375,-38988,-11.9371509
2023-10-26 13:36:19.082,30763,355,0,-39643,-12.137695525,-20678,-6.33108665
2023-10-26 13:36:19.082,30764,395,0,-64791,-19.837384425,-30360,-9.295473
2023-10-26 13:36:19.182,30765,366,0,-21914,-6.70951895,-48539,-14.861428325
2023-10-26 13:36:19.182,30766,404,0,10061,3.080426675,-38706,-11.85080955
2023-10-26 13:36:19.182,30767,376,0,-31114,-9.52632895,-20397,-6.245051475
2023-10-26 13:36:19.222,30768,413,0,-58966,-18.05391505,-29230,-8.94949525
2023-10-26 13:36:19.222,30769,378,0,-18673,-5.717205775,-56577,-17.322462975
2023-10-26 13:36:19.222,30770,412,0,14514,4.44382395,-75643,-23.159995525
2023-10-26 13:36:19.222,30771,371,0,-28363,-8.684041525,-80551,-24.662702425
2023-10-26 13:36:19.222,30772,401,0,-60172,-18.4231621,-86556,-26.5012833
2023-10-26 13:36:19.222,30773,355,0,-17018,-5.21048615,-95866,-29.35177255
2023-10-26 13:36:19.222,30774,383,0,20213,6.188715275,-92624,-28.3591532
2023-10-26 13:36:19.222,30775,330,0,-25922,-7.93666835,-77573,-23.750913275
2023-10-26 13:36:19.251,30776,357,0,-61175,-18.730255625,-67622,-20.70416585
2023-10-26 13:36:19.251,30777,299,0,-18954,-5.80324095,-61958,-18.96999065
2023-10-26 13:36:19.251,30778,324,0,18628,5.7034279,-46079,-14.108237825
2023-10-26 13:36:19.251,30779,269,0,-25461,-7.795521675,-24894,-7.62192045
2023-10-26 13:36:19.251,30780,299,0,-61901,-18.952538675,-17993,-5.509006775
2023-10-26 13:36:19.251,30781,241,0,-19595,-5.999499125,-26069,-7.981676075
2023-10-26 13:36:19.251,30782,277,0,23048,7.0567214,-31324,-9.5906257
2023-10-26 13:36:19.251,30783,220,0,-24879,-7.617327825,-29272,-8.9623546
2023-10-26 13:36:19.251,30784,260,0,-65628,-20.0936529,-30983,-9.486220025
2023-10-26 13:36:19.251,30785,206,0,-19343,-5.922343025,-35656,-10.9169758
2023-10-26 13:36:19.272,30786,250,1,27944,8.5557542,-30064,-9.2048452
2023-10-26 13:36:19.272,30787,195,0,-23310,-7.13693925,-16715,-5.117715125
2023-10-26 13:36:19.272,30788,241,0,-66139,-20.250108325,-13458,-4.12050315
2023-10-26 13:36:19.272,30789,189,0,-18286,-5.59871605,-21797,-6.673696475
2023-10-26 13:36:19.272,30790,234,1,30284,9.2722037,-24874,-7.61579695
2023-10-26 13:36:19.272,30791,180,0,-22740,-6.9624195,-19719,-6.037464825
2023-10-26 13:36:19.272,30792,224,4,-67952,-20.8052036,-20711,-6.341190425
2023-10-26 13:36:19.272,30793,174,0,-17678,-5.41256165,-28442,-8.70822935
2023-10-26 13:36:19.272,30794,221,5,32520,9.956811,-27229,-8.336839075
2023-10-26 13:36:19.301,30795,171,0,-23863,-7.306254025,-16851,-5.159354925
2023-10-26 13:36:19.301,30796,217,4,-70642,-21.62881435,-14739,-4.512713325
2023-10-26 13:36:19.301,30797,164,0,-21455,-6.568984625,-23096,-7.0714178
2023-10-26 13:36:19.301,30798,210,7,31738,9.71738215,-25173,-7.707343275
2023-10-26 13:36:19.301,30799,159,0,-19944,-6.1063542,-18098,-5.54115515
2023-10-26 13:36:19.301,30800,205,7,-67577,-20.690387975,-18064,-5.5307452
2023-10-26 13:36:19.301,30801,155,0,-19452,-5.9557161,-26985,-8.262132375
2023-10-26 13:36:19.301,30802,201,7,33499,10.256556325,-27250,-8.34326875
2023-10-26 13:36:19.301,30803,151,0,-17577,-5.381637975,-16850,-5.15904875
2023-10-26 13:36:19.301,30804,198,9,-67982,-20.81438885,-14738,-4.51240715
2023-10-26 13:36:19.331,30805,150,0,-22363,-6.846991525,-23633,-7.235833775
2023-10-26 13:36:19.331,30806,196,9,32263,9.878124025,-24645,-7.545682875
2023-10-26 13:36:19.331,30807,146,0,-17583,-5.383475025,-15021,-4.599054675
2023-10-26 13:36:19.331,30808,199,9,-67521,-20.673242175,-13784,-4.2203162
2023-10-26 13:36:19.331,30809,149,0,-28219,-8.639952325,-23764,-7.2759427
2023-10-26 13:36:19.331,30810,198,13,22370,6.84913475,-25281,-7.740410175
2023-10-26 13:36:19.331,30811,158,0,-12502,-3.82779985,-15549,-4.760715075
2023-10-26 13:36:19.331,30812,197,12,-59169,-18.116068575,-14466,-4.42912755
2023-10-26 13:36:19.361,30813,154,0,-29384,-8.9966462,-24695,-7.560991625
2023-10-26 13:36:19.361,30814,199,13,23173,7.094993275,-26151,-8.006782425
2023-10-26 13:36:19.361,30815,151,0,-9937,-3.042460975,-15537,-4.757040975
2023-10-26 13:36:19.361,30816,197,15,-62329,-19.083581575,-13138,-4.02252715
2023-10-26 13:36:19.361,30817,151,0,-24096,-7.3775928,-23048,-7.0567214
2023-10-26 13:36:19.361,30818,201,16,36689,11.233254575,-25391,-7.774089425
2023-10-26 13:36:19.361,30819,152,0,-11199,-3.428853825,-15787,-4.833584725
2023-10-26 13:36:19.391,30820,202,16,-70764,-21.6661677,-13509,-4.136118075
2023-10-26 13:36:19.391,30821,153,0,-23062,-7.06100785,-22777,-6.973747975
2023-10-26 13:36:19.391,30822,202,15,47127,14.429109225,-24182,-7.40392385
2023-10-26 13:36:19.391,30823,152,0,-10104,-3.0935922,-13645,-4.177757875
2023-10-26 13:36:19.391,30824,204,15,-76833,-23.524343775,-11113,-3.402522775
2023-10-26 13:36:19.431,30825,152,0,-19480,-5.964289,-21737,-6.655325975
2023-10-26 13:36:19.431,30826,201,18,60055,18.387339625,-26735,-8.185588625
2023-10-26 13:36:19.431,30827,149,0,-8770,-2.68515475,-19625,-6.008684375
2023-10-26 13:36:19.431,30828,200,20,-85588,-26.2049059,-16493,-5.049744275
2023-10-26 13:36:19.431,30829,150,0,-22385,-6.853727375,-23628,-7.2343029
2023-10-26 13:36:19.431,30830,218,18,62910,19.26146925,-25877,-7.922890475
2023-10-26 13:36:19.431,30831,147,0,-8356,-2.5583983,-16899,-5.174051325
2023-10-26 13:36:19.431,30832,199,19,-83688,-25.6231734,-12824,-3.9263882
2023-10-26 13:36:19.461,30833,146,0,-66557,-20.378089475,-20689,-6.334454575
2023-10-26 13:36:19.461,30834,201,20,-75617,-23.152034975,-23126,-7.08060305
2023-10-26 13:36:19.461,30835,149,0,61182,18.73239885,-13576,-4.1566318
2023-10-26 13:36:19.461,30836,201,20,130170,39.85479975,-10906,-3.33914455
2023-10-26 13:36:19.461,30837,149,0,129979,39.796320325,-21259,-6.508974325
2023-10-26 13:36:19.461,30838,201,22,90582,27.73394385,-23199,-7.102953825
2023-10-26 13:36:19.461,30839,148,0,100136,30.6591398,-10437,-3.195548475
2023-10-26 13:36:19.461,30840,201,23,130885,40.073714875,-6560,-2.008508
2023-10-26 13:36:19.491,30841,149,0,130603,39.987373525,-18769,-5.746598575
2023-10-26 13:36:19.491,30842,198,23,104303,31.934971025,-21745,-6.657775375
2023-10-26 13:36:19.491,30843,149,0,109023,33.380117025,-8125,-2.487671875
2023-10-26 13:36:19.491,30844,201,24,130949,40.093310075,-4766,-1.45923005
2023-10-26 13:36:19.491,30845,147,0,131053,40.125152275,-19088,-5.8442684
2023-10-26 13:36:19.491,30846,205,20,128280,39.276129,-22572,-6.9109821
2023-10-26 13:36:19.491,30847,146,0,128761,39.423399175,-7396,-2.2644703
2023-10-26 13:36:19.491,30848,205,24,131071,40.130663425,-2856,-0.8744358
2023-10-26 13:36:19.491,30849,147,0,131071,40.130663425,-18392,-5.6311706
2023-10-26 13:36:19.491,30850,204,25,131071,40.130663425,-38067,-11.655163725
2023-10-26 13:36:19.521,30851,145,0,131071,40.130663425,-45412,-13.9040191
2023-10-26 13:36:19.521,30852,207,27,131071,40.130663425,-24216,-7.4143338
2023-10-26 13:36:19.521,30853,144,0,131071,40.130663425,16240,4.972282
2023-10-26 13:36:19.521,30854,208,26,131071,40.130663425,49910,15.28119425
2023-10-26 13:36:19.521,30855,145,0,131071,40.130663425,68791,21.062084425
2023-10-26 13:36:19.521,30856,211,26,131071,40.130663425,85883,26.295227525
2023-10-26 13:36:19.521,30857,142,0,131071,40.130663425,110948,33.9695039
2023-10-26 13:36:19.521,30858,216,29,131071,40.130663425,134293,41.117159275
2023-10-26 13:36:19.551,30859,143,0,131071,40.130663425,143151,43.829257425
2023-10-26 13:36:19.551,30860,213,26,131071,40.130663425,138725,42.474126875
2023-10-26 13:36:19.551,30861,142,0,131071,40.130663425,128796,39.4341153
2023-10-26 13:36:19.551,30862,213,29,131071,40.130663425,117912,36.1017066
2023-10-26 13:36:19.581,30863,139,0,131071,40.130663425,110844,33.9376617
2023-10-26 13:36:19.581,30864,215,30,131071,40.130663425,112141,34.334770675
2023-10-26 13:36:19.611,30865,136,0,131071,40.130663425,121494,37.19842545
2023-10-26 13:36:19.611,30866,215,28,131071,40.130663425,133605,40.906510875
2023-10-26 13:36:19.641,30867,136,0,131071,40.130663425,142088,43.5037934
2023-10-26 13:36:19.641,30868,218,32,131071,40.130663425,143361,43.893554175
2023-10-26 13:36:19.641,30869,135,0,131071,40.130663425,138030,42.26133525
2023-10-26 13:36:19.681,30870,218,26,131071,40.130663425,130064,39.8223452
2023-10-26 13:36:19.681,30871,132,0,131071,40.130663425,124167,38.016831225
2023-10-26 13:36:19.681,30872,221,30,131071,40.130663425,123125,37.697796875
2023-10-26 13:36:19.681,30873,129,0,131071,40.130663425,126645,38.775532875
2023-10-26 13:36:19.681,30874,220,32,131071,40.130663425,132037,40.426428475
2023-10-26 13:36:19.681,30875,132,0,131071,40.130663425,136096,41.6691928
2023-10-26 13:36:19.681,30876,218,32,131071,40.130663425,136976,41.9386268
2023-10-26 13:36:19.681,30877,130,0,131071,40.130663425,134877,41.295965475
2023-10-26 13:36:19.711,30878,221,32,131071,40.130663425,131506,40.26384955
2023-10-26 13:36:19.711,30879,127,0,131071,40.130663425,128880,39.459834
2023-10-26 13:36:19.711,30880,219,36,131071,40.130663425,128117,39.226222475
2023-10-26 13:36:19.711,30881,127,0,131071,40.130663425,129093,39.525049275
2023-10-26 13:36:19.711,30882,222,32,131071,40.130663425,130867,40.068203725
2023-10-26 13:36:19.711,30883,125,0,131071,40.130663425,132347,40.521342725
2023-10-26 13:36:19.711,30884,219,34,131071,40.130663425,132977,40.714232975
2023-10-26 13:36:19.741,30885,126,0,131071,40.130663425,132823,40.667082025
2023-10-26 13:36:19.741,30886,218,31,131071,40.130663425,132243,40.489500525
2023-10-26 13:36:19.741,30887,125,0,131071,40.130663425,131609,40.295385575
2023-10-26 13:36:19.741,30888,220,34,131071,40.130663425,131114,40.14382895
2023-10-26 13:36:19.741,30889,124,0,131071,40.130663425,130784,40.0427912
2023-10-26 13:36:19.741,30890,216,35,131071,40.130663425,130629,39.995334075
2023-10-26 13:36:19.771,30891,122,0,131071,40.130663425,130843,40.060855525
2023-10-26 13:36:19.771,30892,219,35,131071,40.130663425,131304,40.2020022
2023-10-26 13:36:19.771,30893,124,0,131071,40.130663425,131568,40.2828324
2023-10-26 13:36:19.771,30894,217,12,131071,40.130663425,131798,40.35325265
2023-10-26 13:36:19.771,30895,120,0,131071,40.130663425,131899,40.384176325
2023-10-26 13:36:19.771,30896,215,37,131071,40.130663425,131789,40.350497075
2023-10-26 13:36:19.771,30897,122,0,131071,40.130663425,131532,40.2718101
2023-10-26 13:36:19.801,30898,217,37,131071,40.130663425,131157,40.156994475
2023-10-26 13:36:19.801,30899,122,0,131071,40.130663425,130554,39.97237095
2023-10-26 13:36:19.801,30900,216,38,131071,40.130663425,130459,39.943284325
2023-10-26 13:36:19.801,30901,120,0,131071,40.130663425,131038,40.12055965
2023-10-26 13:36:19.801,30902,214,38,131071,40.130663425,131850,40.36917375
2023-10-26 13:36:19.801,30903,121,0,131071,40.130663425,132613,40.602785275
2023-10-26 13:36:19.801,30904,214,39,131071,40.130663425,132729,40.638301575
2023-10-26 13:36:19.831,30905,125,0,131071,40.130663425,132015,40.419692625
2023-10-26 13:36:19.831,30906,210,38,131071,40.130663425,130988,40.1052509
2023-10-26 13:36:19.831,30907,120,0,131071,40.130663425,130162,39.85235035
2023-10-26 13:36:19.831,30908,207,38,131071,40.130663425,130023,39.809792025
2023-10-26 13:36:19.831,30909,119,0,131071,40.130663425,130736,40.0280948
2023-10-26 13:36:19.831,30910,207,38,131071,40.130663425,131797,40.352946475
2023-10-26 13:36:19.831,30911,120,0,131071,40.130663425,132614,40.60309145
2023-10-26 13:36:19.831,30912,203,38,131071,40.130663425,132779,40.653610325
2023-10-26 13:36:19.861,30913,120,0,131071,40.130663425,132144,40.4591892
2023-10-26 13:36:19.861,30914,204,39,131071,40.130663425,131158,40.15730065
2023-10-26 13:36:19.861,30915,118,0,131071,40.130663425,130410,39.92828175
2023-10-26 13:36:19.861,30916,198,38,131071,40.130663425,130227,39.872251725
2023-10-26 13:36:19.861,30917,120,0,131071,40.130663425,130743,40.030238025
2023-10-26 13:36:19.861,30918,197,38,131071,40.130663425,131585,40.288037375
2023-10-26 13:36:19.861,30919,123,0,131071,40.130663425,132219,40.482152325
2023-10-26 13:36:19.891,30920,196,39,131071,40.130663425,132408,40.5400194
2023-10-26 13:36:19.891,30921,122,0,131071,40.130663425,132033,40.425203775
2023-10-26 13:36:19.891,30922,199,44,131071,40.130663425,131373,40.223128275
2023-10-26 13:36:19.891,30923,118,0,131071,40.130663425,130886,40.07402105
2023-10-26 13:36:19.891,30924,198,47,131070,40.13035725,130705,40.018603375
2023-10-26 13:36:19.891,30925,118,0,130361,39.913279175,130931,40.087798925
2023-10-26 13:36:19.931,30926,200,48,128284,39.2773537,131389,40.228027075
2023-10-26 13:36:19.931,30927,115,0,126394,38.69868295,131705,40.324778375
2023-10-26 13:36:19.931,30928,199,52,124276,38.0502043,131861,40.372541675
2023-10-26 13:36:19.931,30929,113,0,122034,37.36375995,131785,40.349272375
2023-10-26 13:36:19.961,30930,202,51,119942,36.72324185,131538,40.27364715
2023-10-26 13:36:19.961,30931,109,0,118346,36.23458655,131373,40.223128275
2023-10-26 13:36:19.961,30932,202,56,115692,35.4219981,131224,40.1775082
2023-10-26 13:36:19.961,30933,105,0,113312,34.6933016,131199,40.169853825
2023-10-26 13:36:19.991,30934,200,55,112160,34.340588,131300,40.2007775
2023-10-26 13:36:20.027,30935,104,0,111410,34.11095675,131460,40.2497655
2023-10-26 13:36:20.027,30936,202,58,108795,33.310309125,131584,40.2877312
2023-10-26 13:36:20.027,30937,105,0,106821,32.705919675,131609,40.295385575
2023-10-26 13:36:20.057,30938,202,59,105928,32.4325054,131532,40.2718101
2023-10-26 13:36:20.057,30939,105,0,104173,31.895168275,131405,40.232925875
2023-10-26 13:36:20.057,30940,199,57,101744,31.1514692,131304,40.2020022
2023-10-26 13:36:20.057,30941,102,0,99858,30.57402315,131278,40.19404165
2023-10-26 13:36:20.084,30942,200,62,99149,30.356945075,131311,40.204145425
2023-10-26 13:36:20.084,30943,101,0,98183,30.061180025,131323,40.207819525
2023-10-26 13:36:20.084,30944,198,62,95555,29.256552125,131217,40.175364975
2023-10-26 13:36:20.084,30945,102,0,93700,28.6885975,129719,39.716714825
2023-10-26 13:36:20.115,30946,199,62,92921,28.450087175,127123,38.921884525
2023-10-26 13:36:20.115,30947,101,0,92354,28.27648595,124553,38.135014775
2023-10-26 13:36:20.115,30948,199,64,89973,27.547483275,122073,37.375700775
2023-10-26 13:36:20.115,30949,102,0,87863,26.901454025,119607,36.620673225
2023-10-26 13:36:20.115,30950,197,59,87392,26.7572456,117216,35.8886088
2023-10-26 13:36:20.115,30951,100,0,86798,26.57537765,115195,35.269829125
2023-10-26 13:36:20.115,30952,203,62,84431,25.850661425,113543,34.764028025
2023-10-26 13:36:20.115,30953,100,0,83145,25.456920375,111891,34.258226925
2023-10-26 13:36:20.146,30954,199,64,82011,25.109717925,110163,33.729156525
2023-10-26 13:36:20.146,30955,96,0,81362,24.91101035,108532,33.2297851
2023-10-26 13:36:20.146,30956,199,63,79755,24.418987125,106897,32.729188975
2023-10-26 13:36:20.146,30957,97,0,78061,23.900326675,105091,32.176236925
2023-10-26 13:36:20.146,30958,198,62,77314,23.67161395,103241,31.609813175
2023-10-26 13:36:20.146,30959,98,0,76946,23.55894155,101629,31.116259075
2023-10-26 13:36:20.146,30960,197,61,74575,22.833000625,100195,30.677204125
2023-10-26 13:36:20.146,30961,95,0,73454,22.48977845,98627,30.197121725
2023-10-26 13:36:20.146,30962,198,63,73030,22.35996025,96954,29.68489095
2023-10-26 13:36:20.177,30963,96,0,72582,22.22279385,95471,29.230833425
2023-10-26 13:36:20.177,30964,197,61,70768,21.6673924,94175,28.834030625
2023-10-26 13:36:20.177,30965,95,0,69437,21.259873475,92726,28.39038305
2023-10-26 13:36:20.177,30966,195,60,69101,21.156998675,91095,27.891011625
2023-10-26 13:36:20.177,30967,96,0,68765,21.054123875,89648,27.4479764
2023-10-26 13:36:20.177,30968,193,58,66841,20.465043175,88414,27.07015645
2023-10-26 13:36:20.217,30969,96,0,65496,20.0532378,87118,26.67335365
2023-10-26 13:36:20.217,30970,192,59,65022,19.90811085,85754,26.25573095
2023-10-26 13:36:20.217,30971,92,0,64738,19.82115715,84477,25.864745475
2023-10-26 13:36:20.217,30972,192,56,62959,19.276471825,83300,25.5043775
2023-10-26 13:36:20.217,30973,96,0,61948,18.9669289,82060,25.1247205
2023-10-26 13:36:20.217,30974,192,58,61168,18.7281124,80697,24.707403975
2023-10-26 13:36:20.217,30975,94,0,60895,18.644526625,79448,24.3249914
2023-10-26 13:36:20.217,30976,189,58,58800,18.00309,78354,23.99003595
2023-10-26 13:36:20.242,30977,96,0,57698,17.66568515,77171,23.627830925
2023-10-26 13:36:20.242,30978,192,55,57315,17.548420125,75951,23.254297425
2023-10-26 13:36:20.242,30979,96,0,57142,17.49545185,74923,22.939549525
2023-10-26 13:36:20.242,30980,189,52,55165,16.890143875,74012,22.6606241
2023-10-26 13:36:20.242,30981,99,0,53961,16.521509175,72960,22.338528
2023-10-26 13:36:20.242,30982,189,56,53355,16.335967125,71787,21.979384725
2023-10-26 13:36:20.242,30983,97,0,52901,16.196963675,70772,21.6686171
2023-10-26 13:36:20.242,30984,187,52,51729,15.838126575,69929,21.410511575
2023-10-26 13:36:20.284,30985,102,0,50050,15.32405875,68997,21.125156475
2023-10-26 13:36:20.284,30986,184,52,49434,15.13545495,67951,20.804897425
2023-10-26 13:36:20.284,30987,99,0,49302,15.09503985,67011,20.517092925
2023-10-26 13:36:20.284,30988,183,49,47616,14.5788288,66160,20.256538
2023-10-26 13:36:20.284,30989,102,0,47240,14.463707,65182,19.95709885
2023-10-26 13:36:20.284,30990,183,50,46722,14.30510835,64082,19.62030635
2023-10-26 13:36:20.284,30991,100,0,46712,14.3020466,63070,19.31045725
2023-10-26 13:36:20.284,30992,182,49,44953,13.763484775,62167,19.033981225
2023-10-26 13:36:20.284,30993,103,0,44233,13.543038775,61167,18.727806225
2023-10-26 13:36:20.284,30994,182,49,44033,13.481803775,60093,18.398974275
2023-10-26 13:36:20.316,30995,103,0,44519,13.630604825,59178,18.11882415
2023-10-26 13:36:20.316,30996,179,47,43318,13.26288865,58368,17.8708224
2023-10-26 13:36:20.316,30997,105,0,42166,12.91017505,57387,17.570464725
2023-10-26 13:36:20.316,30998,177,44,41826,12.80607555,56251,17.222649925
2023-10-26 13:36:20.316,30999,107,0,42263,12.939874025,55211,16.904227925
2023-10-26 13:36:20.316,31000,178,45,41204,12.6156347,54336,16.6363248
2023-10-26 13:36:20.316,31001,107,0,40294,12.33701545,53461,16.368421675
2023-10-26 13:36:20.316,31002,177,43,39722,12.16188335,52453,16.059797275
2023-10-26 13:36:20.316,31003,107,0,39832,12.1955626,51484,15.7631137
2023-10-26 13:36:20.316,31004,175,42,38901,11.910513675,50615,15.497047625
2023-10-26 13:36:20.352,31005,109,0,37965,11.623933875,49699,15.216591325
2023-10-26 13:36:20.352,31006,173,44,37630,11.52136525,48795,14.939809125
2023-10-26 13:36:20.352,31007,110,0,37724,11.5501457,48061,14.715076675
2023-10-26 13:36:20.352,31008,173,43,37230,11.39889525,47450,14.52800375
2023-10-26 13:36:20.352,31009,112,0,36168,11.0737374,46758,14.31613065
2023-10-26 13:36:20.352,31010,171,43,35928,11.0002554,46012,14.0877241
2023-10-26 13:36:20.352,31011,113,0,35794,10.95922795,45444,13.9138167
2023-10-26 13:36:20.352,31012,170,41,35202,10.77797235,45072,13.7999196
2023-10-26 13:36:20.386,31013,115,0,34365,10.521703875,44624,13.6627532
2023-10-26 13:36:20.386,31014,168,42,34061,10.428626675,43986,13.46741355
2023-10-26 13:36:20.386,31015,115,0,33772,10.3401421,43394,13.28615795
2023-10-26 13:36:20.386,31016,169,40,33485,10.252269875,42979,13.159095325
2023-10-26 13:36:20.386,31017,115,0,32887,10.069177225,42568,13.0332574
2023-10-26 13:36:20.386,31018,168,45,31976,9.7902518,42045,12.873127875
2023-10-26 13:36:20.386,31019,113,0,31692,9.7032981,41512,12.7099366
2023-10-26 13:36:20.416,31020,166,37,31422,9.62063085,41034,12.56358495
2023-10-26 13:36:20.416,31021,116,0,30769,9.420698575,40495,12.398556625
2023-10-26 13:36:20.416,31022,164,43,29923,9.161674525,39847,12.200155225
2023-10-26 13:36:20.416,31023,116,0,29981,9.179432675,39238,12.01369465
2023-10-26 13:36:20.416,31024,164,41,29635,9.073496125,38771,11.870710925
2023-10-26 13:36:20.416,31025,119,0,28989,8.875707075,38333,11.736606275
2023-10-26 13:36:20.416,31026,161,41,28374,8.68740945,37817,11.578619975
2023-10-26 13:36:20.416,31027,119,0,28292,8.6623031,37323,11.427369525
2023-10-26 13:36:20.416,31028,163,41,27898,8.54167015,36924,11.3052057
2023-10-26 13:36:20.416,31029,119,0,26970,8.25753975,36526,11.18334805
2023-10-26 13:36:20.416,31030,162,40,26884,8.2312087,36066,11.04250755
2023-10-26 13:36:20.452,31031,123,0,26582,8.13874385,35600,10.89983
2023-10-26 13:36:20.452,31032,159,40,25654,7.85461345,35173,10.769093275
2023-10-26 13:36:20.452,31033,121,0,24806,7.59497705,34758,10.64203065
2023-10-26 13:36:20.452,31034,157,38,24902,7.62436985,34291,10.499046925
2023-10-26 13:36:20.452,31035,122,0,24657,7.549356975,33759,10.336161825
2023-10-26 13:36:20.452,31036,155,39,23988,7.3445259,33247,10.179400225
2023-10-26 13:36:20.452,31037,123,0,23436,7.1755173,32791,10.039784425
2023-10-26 13:36:20.452,31038,156,42,23064,7.0616202,32308,9.8919019
2023-10-26 13:36:20.452,31039,123,0,22683,6.944967525,31774,9.72840445
2023-10-26 13:36:20.452,31040,156,41,22273,6.819435775,31282,9.57776635
2023-10-26 13:36:20.452,31041,126,0,21658,6.63113815,30832,9.4399876
2023-10-26 13:36:20.472,31042,154,37,21252,6.5068311,30354,9.29363595
2023-10-26 13:36:20.472,31043,125,0,21095,6.458761625,29870,9.14544725
2023-10-26 13:36:20.472,31044,153,35,20720,6.343946,29468,9.0223649
2023-10-26 13:36:20.472,31045,129,0,20008,6.1259494,29106,8.91152955
2023-10-26 13:36:20.472,31046,157,36,19689,6.028279575,28696,8.7859978
2023-10-26 13:36:20.502,31047,128,0,19497,5.969493975,28290,8.66169075
2023-10-26 13:36:20.502,31048,151,34,19039,5.829265825,27895,8.540751625
2023-10-26 13:36:20.502,31049,131,0,18480,5.658114,27402,8.38980735
2023-10-26 13:36:20.502,31050,150,35,17889,5.477164575,26811,8.208857925
2023-10-26 13:36:20.532,31051,131,0,17696,5.4180728,26276,8.0450543
2023-10-26 13:36:20.532,31052,149,31,17369,5.317953575,25833,7.909418775
2023-10-26 13:36:20.532,31053,134,0,16713,5.117102775,25385,7.772252375
2023-10-26 13:36:20.532,31054,146,30,15674,4.79898695,24906,7.62559455
2023-10-26 13:36:20.532,31055,134,0,15774,4.82960445,24439,7.482610825
2023-10-26 13:36:20.532,31056,147,29,15555,4.762552125,24011,7.351567925
2023-10-26 13:36:20.532,31057,137,0,14595,4.468624125,23599,7.225423825
2023-10-26 13:36:20.572,31058,148,26,14320,4.384426,23171,7.094380925
2023-10-26 13:36:20.572,31059,136,0,14114,4.32135395,22752,6.9660936
2023-10-26 13:36:20.572,31060,146,31,13759,4.212661825,22367,6.848216225
2023-10-26 13:36:20.572,31061,140,0,13585,4.159387375,21973,6.727583275
2023-10-26 13:36:20.572,31062,143,26,13090,4.00783075,21537,6.594090975
2023-10-26 13:36:20.572,31063,141,0,12954,3.96619095,21113,6.464272775
2023-10-26 13:36:20.572,31064,144,22,12596,3.8565803,20743,6.350988025
2023-10-26 13:36:20.572,31065,141,0,12098,3.70410515,20388,6.2422959
2023-10-26 13:36:20.572,31066,145,23,11476,3.5136643,19995,6.121969125
2023-10-26 13:36:20.602,31067,147,0,11784,3.6079662,19564,5.9900077
2023-10-26 13:36:20.602,31068,145,22,11229,3.438039075,19142,5.86080185
2023-10-26 13:36:20.602,31069,145,0,10794,3.30485295,18732,5.7352701
2023-10-26 13:36:20.602,31070,144,21,10544,3.2283092,18256,5.5895308
2023-10-26 13:36:20.602,31071,144,0,10500,3.2148375,17696,5.4180728
2023-10-26 13:36:20.602,31072,142,20,10181,3.117167675,17188,5.2625359
2023-10-26 13:36:20.602,31073,147,0,9701,2.970203675,16741,5.125675675
2023-10-26 13:36:20.602,31074,143,18,9238,2.82844465,16251,4.975649925
2023-10-26 13:36:20.602,31075,153,0,9344,2.8608992,15755,4.823787125
2023-10-26 13:36:20.632,31076,143,16,9292,2.8449781,15314,4.68876395
2023-10-26 13:36:20.632,31077,154,0,8759,2.681786825,14931,4.571498925
2023-10-26 13:36:20.632,31078,141,14,8440,2.584117,14595,4.468624125
2023-10-26 13:36:20.632,31079,152,0,8234,2.52104495,14290,4.37524075
2023-10-26 13:36:20.632,31080,145,12,7897,2.417863975,14031,4.295941425
2023-10-26 13:36:20.662,31081,152,0,7630,2.33611525,13799,4.224908825
2023-10-26 13:36:20.662,31082,143,13,7261,2.223136675,13523,4.140404525
2023-10-26 13:36:20.662,31083,158,0,6693,2.049229275,13223,4.048552025
2023-10-26 13:36:20.662,31084,142,12,6780,2.0758665,12973,3.972008275
2023-10-26 13:36:20.662,31085,157,0,5972,1.8284771,12718,3.89393365
2023-10-26 13:36:20.662,31086,142,12,5907,1.808575725,12403,3.797488525
2023-10-26 13:36:20.662,31087,159,0,5988,1.8333759,12066,3.69430755
2023-10-26 13:36:20.692,31088,142,12,5888,1.8027584,11760,3.600618
2023-10-26 13:36:20.692,31089,161,0,5641,1.727133175,11486,3.51672605
2023-10-26 13:36:20.692,31090,141,6,5233,1.602213775,11203,3.430078525
2023-10-26 13:36:20.692,31091,160,0,4911,1.503625425,10916,3.3422063
2023-10-26 13:36:20.692,31092,141,7,4797,1.468721475,10686,3.27178605
2023-10-26 13:36:20.692,31093,167,0,4643,1.421570525,10497,3.213918975
2023-10-26 13:36:20.692,31094,140,5,4441,1.359723175,10288,3.1499284
2023-10-26 13:36:20.692,31095,162,0,4424,1.3545182,10063,3.081039025
2023-10-26 13:36:20.722,31096,141,5,4478,1.37105165,9836,3.0115373
2023-10-26 13:36:20.722,31097,164,0,4130,1.26450275,9586,2.93499355
2023-10-26 13:36:20.722,31098,141,6,3851,1.179079925,9315,2.852020125
2023-10-26 13:36:20.722,31099,165,0,3872,1.1855096,9022,2.76231085
2023-10-26 13:36:20.752,31100,142,4,3632,1.1120276,8701,2.664028675
2023-10-26 13:36:20.752,31101,168,0,3321,1.016807175,8344,2.5547242
2023-10-26 13:36:20.752,31102,139,6,3284,1.0054787,7922,2.42551835
2023-10-26 13:36:20.782,31103,167,0,3417,1.046199975,7499,2.296006325
2023-10-26 13:36:20.782,31104,141,3,3516,1.0765113,7174,2.19649945
2023-10-26 13:36:20.782,31105,168,0,3205,0.981290875,6937,2.123935975
2023-10-26 13:36:20.782,31106,140,0,3168,0.9699624,6741,2.063925675
2023-10-26 13:36:20.782,31107,166,0,3372,1.0324221,6555,2.006977125
2023-10-26 13:36:20.822,31108,140,0,3474,1.06365195,6390,1.95645825
2023-10-26 13:36:20.822,31109,169,0,2730,0.83585775,6273,1.920635775
2023-10-26 13:36:20.822,31110,140,0,1833,0.561218775,6061,1.855726675
2023-10-26 13:36:20.822,31111,173,0,1874,0.57377195,5820,1.7819385
2023-10-26 13:36:20.822,31112,140,0,1408,0.4310944,5593,1.712436775
2023-10-26 13:36:20.852,31113,171,0,1025,0.313829375,5388,1.6496709
2023-10-26 13:36:20.852,31114,139,0,1617,0.495084975,5200,1.59211
2023-10-26 13:36:20.852,31115,174,0,2251,0.689199925,5018,1.53638615
2023-10-26 13:36:20.852,31116,140,0,1790,0.54805325,4841,1.482193175
2023-10-26 13:36:20.882,31117,172,0,1178,0.36067415,4669,1.429531075
2023-10-26 13:36:20.882,31118,140,0,1119,0.342609825,4503,1.378706025
2023-10-26 13:36:20.882,31119,174,0,1336,0.4090498,4342,1.32941185
2023-10-26 13:36:20.912,31120,138,0,1051,0.321789925,4189,1.282567075
2023-10-26 13:36:20.912,31121,174,0,767,0.234836225,4044,1.2381717
2023-10-26 13:36:20.912,31122,140,0,831,0.254431425,3907,1.196225725
2023-10-26 13:36:20.942,31123,175,0,875,0.267903125,3778,1.15672915
2023-10-26 13:36:20.942,31124,137,0,677,0.207280475,3666,1.12243755
2023-10-26 13:36:20.942,31125,176,0,146,0.04470155,3575,1.094575625
2023-10-26 13:36:20.942,31126,137,0,-33,-0.010103775,3490,1.06855075
2023-10-26 13:36:20.942,31127,177,0,83,0.025412525,3389,1.037627075
2023-10-26 13:36:20.942,31128,135,0,228,0.0698079,3265,0.999661375
2023-10-26 13:36:20.942,31129,175,0,-146,-0.04470155,3118,0.95465365
2023-10-26 13:36:20.942,31130,138,0,-825,-0.252594375,2948,0.9026039
2023-10-26 13:36:20.972,31131,180,0,-576,-0.1763568,2770,0.84810475
2023-10-26 13:36:20.972,31132,137,0,-584,-0.1788062,2599,0.795748825
2023-10-26 13:36:20.972,31133,180,0,-951,-0.291172425,2437,0.746148475
2023-10-26 13:36:20.972,31134,135,0,-822,-0.25167585,2273,0.695935775
2023-10-26 13:36:20.972,31135,177,0,-468,-0.1432899,2102,0.64357985
2023-10-26 13:36:20.972,31136,136,0,-740,-0.2265695,1929,0.590611575
2023-10-26 13:36:20.972,31137,178,0,-1232,-0.3772076,1766,0.54070505
2023-10-26 13:36:20.972,31138,134,0,-1083,-0.331587525,1620,0.4960035
2023-10-26 13:36:21.002,31139,180,0,-753,-0.230549775,1489,0.455894575
2023-10-26 13:36:21.002,31140,135,0,-882,-0.27004635,1376,0.4212968
2023-10-26 13:36:21.002,31141,180,0,-1005,-0.307705875,1279,0.391597825
2023-10-26 13:36:21.002,31142,130,0,-617,-0.188909975,1180,0.3612865
2023-10-26 13:36:21.002,31143,179,0,-403,-0.123388525,1069,0.327301075
2023-10-26 13:36:21.032,31144,132,0,-750,-0.22963125,955,0.292397125
2023-10-26 13:36:21.032,31145,182,0,-1000,-0.306175,851,0.260554925
2023-10-26 13:36:21.032,31146,131,0,-820,-0.2510635,743,0.227488025
2023-10-26 13:36:21.032,31147,183,0,-436,-0.1334923,605,0.185235875
2023-10-26 13:36:21.072,31148,133,0,-730,-0.22350775,441,0.135023175
2023-10-26 13:36:21.072,31149,180,0,-1111,-0.340160425,270,0.08266725
2023-10-26 13:36:21.072,31150,137,0,-606,-0.18554205,102,0.03122985
2023-10-26 13:36:21.072,31151,183,0,-359,-0.109916825,-51,-0.015614925
2023-10-26 13:36:21.072,31152,131,0,-638,-0.19533965,-181,-0.055417675
2023-10-26 13:36:21.072,31153,186,0,-1060,-0.3245455,-288,-0.0881784
2023-10-26 13:36:21.072,31154,132,0,-715,-0.218915125,-390,-0.11940825
2023-10-26 13:36:21.102,31155,183,1,-663,-0.202994025,-496,-0.1518628
2023-10-26 13:36:21.102,31156,131,0,-828,-0.2535129,-604,-0.1849297
2023-10-26 13:36:21.102,31157,184,0,-1201,-0.367716175,-702,-0.21493485
2023-10-26 13:36:21.102,31158,132,0,-1079,-0.330362825,-775,-0.237285625
2023-10-26 13:36:21.102,31159,186,45,-727,-0.222589225,-820,-0.2510635
2023-10-26 13:36:21.102,31160,134,0,-901,-0.275863675,-837,-0.256268475
2023-10-26 13:36:21.132,31161,185,4,-1392,-0.4261956,-837,-0.256268475
2023-10-26 13:36:21.132,31162,133,0,-1162,-0.35577535,-834,-0.25534995
2023-10-26 13:36:21.132,31163,186,5,-1028,-0.3147479,-834,-0.25534995
2023-10-26 13:36:21.132,31164,137,0,-1022,-0.31291085,-827,-0.253206725
2023-10-26 13:36:21.132,31165,188,5,-1369,-0.419153575,-809,-0.247695575
2023-10-26 13:36:21.132,31166,135,0,-1285,-0.393434875,-792,-0.2424906
2023-10-26 13:36:21.132,31167,188,7,-943,-0.288723025,-778,-0.23820415
2023-10-26 13:36:21.162,31168,140,0,-1186,-0.36312355,-760,-0.232693
2023-10-26 13:36:21.162,31169,187,10,-1516,-0.4641613,-741,-0.226875675
2023-10-26 13:36:21.162,31170,138,0,-1782,-0.54560385,-730,-0.22350775
2023-10-26 13:36:21.162,31171,186,8,-1333,-0.408131275,-728,-0.2228954
2023-10-26 13:36:21.162,31172,140,0,-1463,-0.447934025,-723,-0.221364525
2023-10-26 13:36:21.162,31173,191,6,-1787,-0.547134725,-717,-0.219527475
2023-10-26 13:36:21.162,31174,141,0,-1561,-0.477939175,-723,-0.221364525
2023-10-26 13:36:21.162,31175,186,12,-1432,-0.4384426,-748,-0.2290189
2023-10-26 13:36:21.162,31176,141,0,-1411,-0.432012925,-778,-0.23820415
2023-10-26 13:36:21.162,31177,189,12,-1478,-0.45252665,-803,-0.245858525
2023-10-26 13:36:21.192,31178,140,0,-1384,-0.4237462,-833,-0.255043775
2023-10-26 13:36:21.192,31179,189,11,-965,-0.295458875,-870,-0.26637225
2023-10-26 13:36:21.192,31180,140,0,-1292,-0.3955781,-904,-0.2767822
2023-10-26 13:36:21.192,31181,191,12,-1687,-0.516517225,-932,-0.2853551
2023-10-26 13:36:21.192,31182,142,0,-1282,-0.39251635,-965,-0.295458875
2023-10-26 13:36:21.192,31183,190,15,-1371,-0.419765925,-1009,-0.308930575
2023-10-26 13:36:21.192,31184,139,0,-1287,-0.394047225,-1053,-0.322402275
2023-10-26 13:36:21.192,31185,192,12,-1568,-0.4800824,-1089,-0.333424575
2023-10-26 13:36:21.192,31186,143,0,-1644,-0.5033517,-1122,-0.34352835
2023-10-26 13:36:21.192,31187,193,14,-1110,-0.33985425,-1162,-0.35577535
2023-10-26 13:36:21.222,31188,142,0,-1055,-0.323014625,-1200,-0.36741
2023-10-26 13:36:21.222,31189,193,16,-1565,-0.479163875,-1231,-0.376901425
2023-10-26 13:36:21.222,31190,144,0,-1305,-0.399558375,-1265,-0.387311375
2023-10-26 13:36:21.222,31191,193,16,-1043,-0.319340525,-1309,-0.400783075
2023-10-26 13:36:21.222,31192,144,0,-1198,-0.36679765,-1357,-0.415479475
2023-10-26 13:36:21.222,31193,192,15,-1417,-0.433849975,-1400,-0.428645
2023-10-26 13:36:21.222,31194,146,0,-1467,-0.449158725,-1434,-0.43905495
2023-10-26 13:36:21.222,31195,197,20,-1176,-0.3600618,-1460,-0.4470155
2023-10-26 13:36:21.252,31196,147,0,-1052,-0.3220961,-1471,-0.450383425
2023-10-26 13:36:21.252,31197,197,16,-1266,-0.38761755,-1468,-0.4494649
2023-10-26 13:36:21.252,31198,146,0,-1313,-0.402007775,-1458,-0.44640315
2023-10-26 13:36:21.252,31199,194,18,-1188,-0.3637359,-1450,-0.44395375
2023-10-26 13:36:21.252,31200,145,0,-1092,-0.3343431,-1441,-0.441198175
2023-10-26 13:36:21.282,31201,196,19,-1252,-0.3833311,-1426,-0.43660555
2023-10-26 13:36:21.282,31202,147,0,-1167,-0.357306225,-1412,-0.4323191
2023-10-26 13:36:21.282,31203,197,21,-923,-0.282599525,-1401,-0.428951175
2023-10-26 13:36:21.282,31204,145,0,-948,-0.2902539,-1388,-0.4249709
2023-10-26 13:36:21.282,31205,198,22,-1313,-0.402007775,-1369,-0.419153575
2023-10-26 13:36:21.282,31206,144,0,-1450,-0.44395375,-1357,-0.415479475
2023-10-26 13:36:21.322,31207,198,21,-1045,-0.319952875,-1357,-0.415479475
2023-10-26 13:36:21.322,31208,156,0,-1150,-0.35210125,-1357,-0.415479475
2023-10-26 13:36:21.322,31209,201,23,-1388,-0.4249709,-1348,-0.4127239
2023-10-26 13:36:21.322,31210,145,0,-1360,-0.416398,-1341,-0.410580675
2023-10-26 13:36:21.322,31211,202,22,-1039,-0.318115825,-1337,-0.409355975
2023-10-26 13:36:21.322,31212,147,0,-1109,-0.339548075,-1332,-0.4078251
2023-10-26 13:36:21.352,31213,201,24,-1198,-0.36679765,-1317,-0.403232475
2023-10-26 13:36:21.352,31214,147,0,-1184,-0.3625112,-1295,-0.396496625
2023-10-26 13:36:21.352,31215,202,22,-1005,-0.307705875,-1280,-0.391904
2023-10-26 13:36:21.352,31216,145,0,-1124,-0.3441407,-1270,-0.38884225
2023-10-26 13:36:21.352,31217,203,27,-1445,-0.442422875,-1257,-0.384861975
2023-10-26 13:36:21.382,31218,145,0,-1416,-0.4335438,-1244,-0.3808817
2023-10-26 13:36:21.382,31219,205,26,-1028,-0.3147479,-1235,-0.378126125
2023-10-26 13:36:21.382,31220,144,0,-1227,-0.375676725,-1226,-0.37537055
2023-10-26 13:36:21.382,31221,208,26,-1351,-0.413642425,-1211,-0.370777925
2023-10-26 13:36:21.412,31222,138,0,-1263,-0.386699025,-1195,-0.365879125
2023-10-26 13:36:21.412,31223,207,26,-1070,-0.32760725,-1187,-0.363429725
2023-10-26 13:36:21.412,31224,139,0,-988,-0.3025009,-1181,-0.361592675
2023-10-26 13:36:21.412,31225,210,29,-1303,-0.398946025,-1173,-0.359143275
2023-10-26 13:36:21.412,31226,139,0,-1086,-0.33250605,-1168,-0.3576124
2023-10-26 13:36:21.442,31227,210,28,-830,-0.25412525,-1169,-0.357918575
2023-10-26 13:36:21.442,31228,139,0,-1364,-0.4176227,-1174,-0.35944945
2023-10-26 13:36:21.442,31229,212,29,-1997,-0.611431475,-1179,-0.360980325
2023-10-26 13:36:21.442,31230,139,0,-1609,-0.492635575,-1185,-0.362817375
2023-10-26 13:36:21.442,31231,213,27,-1176,-0.3600618,-1193,-0.365266775
2023-10-26 13:36:21.442,31232,138,0,-1053,-0.322402275,-1198,-0.36679765
2023-10-26 13:36:21.442,31233,216,28,-1454,-0.44517845,-1196,-0.3661853
2023-10-26 13:36:21.442,31234,135,0,-1502,-0.45987485,-1192,-0.3649606
2023-10-26 13:36:21.442,31235,216,29,-1235,-0.378126125,-1195,-0.365879125
2023-10-26 13:36:21.472,31236,136,0,-1169,-0.357918575,-1201,-0.367716175
2023-10-26 13:36:21.472,31237,218,31,-1607,-0.492023225,-1204,-0.3686347
2023-10-26 13:36:21.472,31238,133,0,-1547,-0.473652725,-1206,-0.36924705
2023-10-26 13:36:21.472,31239,220,29,-1086,-0.33250605,-1211,-0.370777925
2023-10-26 13:36:21.472,31240,133,0,-1240,-0.379657,-1212,-0.3710841
2023-10-26 13:36:21.472,31241,217,33,-1797,-0.550196475,-1208,-0.3698594
2023-10-26 13:36:21.472,31242,129,0,-1739,-0.532438325,-1203,-0.368328525
2023-10-26 13:36:21.502,31243,219,30,-1132,-0.3465901,-1202,-0.36802235
2023-10-26 13:36:21.502,31244,130,0,-1076,-0.3294443,-1198,-0.36679765
2023-10-26 13:36:21.502,31245,220,32,-1433,-0.438748775,-1195,-0.365879125
2023-10-26 13:36:21.502,31246,130,0,-1368,-0.4188474,-1204,-0.3686347
2023-10-26 13:36:21.502,31247,220,31,-1152,-0.3527136,-1225,-0.375064375
2023-10-26 13:36:21.502,31248,122,0,-1195,-0.365879125,-1242,-0.38026935
2023-10-26 13:36:21.502,31249,221,33,-1477,-0.452220475,-1249,-0.382412575
2023-10-26 13:36:21.502,31250,127,0,-1144,-0.3502642,-1258,-0.38516815
2023-10-26 13:36:21.532,31251,220,33,-1100,-0.3367925,-1276,-0.3906793
2023-10-26 13:36:21.532,31252,127,0,-1143,-0.349958025,-1298,-0.39741515
2023-10-26 13:36:21.532,31253,220,33,-1418,-0.43415615,-1316,-0.4029263
2023-10-26 13:36:21.532,31254,125,0,-1364,-0.4176227,-1335,-0.408743625
2023-10-26 13:36:21.532,31255,221,34,-1014,-0.31046145,-1361,-0.416704175
2023-10-26 13:36:21.532,31256,124,0,-1218,-0.37292115,-1376,-0.4212968
2023-10-26 13:36:21.532,31257,218,34,-1533,-0.469366275,-1374,-0.42068445
2023-10-26 13:36:21.572,31258,120,0,-1322,-0.40476335,-1374,-0.42068445
2023-10-26 13:36:21.572,31259,221,34,-951,-0.291172425,-1386,-0.42435855
2023-10-26 13:36:21.572,31260,122,0,-1090,-0.33373075,-1400,-0.428645
2023-10-26 13:36:21.572,31261,219,38,-1506,-0.46109955,-1400,-0.428645
2023-10-26 13:36:21.572,31262,122,0,-1339,-0.409968325,-1389,-0.425277075
2023-10-26 13:36:21.572,31263,220,33,-1003,-0.307093525,-1380,-0.4225215
2023-10-26 13:36:21.602,31264,121,0,-1029,-0.315054075,-1374,-0.42068445
2023-10-26 13:36:21.602,31265,218,35,-1389,-0.425277075,-1367,-0.418541225
2023-10-26 13:36:21.602,31266,120,0,-1320,-0.404151,-1362,-0.41701035
2023-10-26 13:36:21.602,31267,218,37,-970,-0.29698975,-1359,-0.416091825
2023-10-26 13:36:21.602,31268,119,0,-984,-0.3012762,-1350,-0.41333625
2023-10-26 13:36:21.632,31269,211,41,-1442,-0.44150435,-1327,-0.406294225
2023-10-26 13:36:21.632,31270,118,0,-1244,-0.3808817,-1298,-0.39741515
2023-10-26 13:36:21.632,31271,215,39,-1068,-0.3269949,-1276,-0.3906793
2023-10-26 13:36:21.632,31272,119,0,-926,-0.28351805,-1262,-0.38639285
2023-10-26 13:36:21.632,31273,214,42,-1378,-0.42190915,-1251,-0.383024925
2023-10-26 13:36:21.632,31274,118,0,-1298,-0.39741515,-1247,-0.381800225
2023-10-26 13:36:21.662,31275,212,40,-810,-0.24800175,-1249,-0.382412575
2023-10-26 13:36:21.662,31276,118,0,-777,-0.237897975,-1248,-0.3821064
2023-10-26 13:36:21.662,31277,211,42,-745,-0.228100375,-1241,-0.379963175
2023-10-26 13:36:21.662,31278,116,0,-919,-0.281374825,-1240,-0.379657
2023-10-26 13:36:21.662,31279,210,42,-1063,-0.325464025,-1247,-0.381800225
2023-10-26 13:36:21.662,31280,116,0,-976,-0.2988268,-1250,-0.38271875
2023-10-26 13:36:21.692,31281,212,45,-1238,-0.37904465,-1244,-0.3808817
2023-10-26 13:36:21.692,31282,116,0,-1356,-0.4151733,-1236,-0.3784323
2023-10-26 13:36:21.692,31283,211,43,-1033,-0.316278775,-1234,-0.37781995
2023-10-26 13:36:21.692,31284,115,0,-1059,-0.324239325,-1230,-0.37659525
2023-10-26 13:36:21.692,31285,209,44,-1296,-0.3968028,-1218,-0.37292115
2023-10-26 13:36:21.692,31286,113,0,-1189,-0.364042075,-1208,-0.3698594
2023-10-26 13:36:21.692,31287,209,48,-761,-0.232999175,-1206,-0.36924705
2023-10-26 13:36:21.692,31288,115,0,-957,-0.293009475,-1203,-0.368328525
2023-10-26 13:36:21.722,31289,208,47,-1491,-0.456506925,-1192,-0.3649606
2023-10-26 13:36:21.722,31290,112,0,-1170,-0.35822475,-1180,-0.3612865
2023-10-26 13:36:21.722,31291,207,48,-721,-0.220752175,-1175,-0.359755625
2023-10-26 13:36:21.722,31292,111,0,-690,-0.21126075,-1171,-0.358530925
2023-10-26 13:36:21.722,31293,203,51,-766,-0.23453005,-1156,-0.3539383
2023-10-26 13:36:21.722,31294,108,0,-1064,-0.3257702,-1131,-0.346283925
2023-10-26 13:36:21.722,31295,206,51,-704,-0.2155472,-1106,-0.33862955
2023-10-26 13:36:21.722,31296,110,0,-633,-0.193808775,-1086,-0.33250605
2023-10-26 13:36:21.722,31297,201,56,-1139,-0.348733325,-1062,-0.32515785
2023-10-26 13:36:21.752,31298,108,0,-1716,-0.5253963,-1040,-0.318422
2023-10-26 13:36:21.752,31299,202,54,-1665,-0.509781375,-1029,-0.315054075
2023-10-26 13:36:21.752,31300,107,0,-1872,-0.5731596,-1027,-0.314441725
2023-10-26 13:36:21.752,31301,199,55,-2193,-0.671441775,-1025,-0.313829375
2023-10-26 13:36:21.752,31302,106,0,-1633,-0.499983775,-1028,-0.3147479
2023-10-26 13:36:21.782,31303,201,56,-790,-0.24187825,-1040,-0.318422
2023-10-26 13:36:21.782,31304,105,0,-681,-0.208505175,-1053,-0.322402275
2023-10-26 13:36:21.782,31305,201,60,-1096,-0.3355678,-1066,-0.32638255
2023-10-26 13:36:21.822,31306,103,0,-964,-0.2951527,-1083,-0.331587525
2023-10-26 13:36:21.822,31307,200,59,-323,-0.098894525,-1099,-0.336486325
2023-10-26 13:36:21.822,31308,103,0,-184,-0.0563362,-1106,-0.33862955
2023-10-26 13:36:21.822,31309,198,59,-850,-0.26024875,-1099,-0.336486325
2023-10-26 13:36:21.822,31310,105,0,-1002,-0.30678735,-1084,-0.3318937
2023-10-26 13:36:21.822,31311,198,60,-503,-0.154006025,-1068,-0.3269949
2023-10-26 13:36:21.852,31312,103,0,-290,-0.08879075,-1046,-0.32025905
2023-10-26 13:36:21.852,31313,197,61,-799,-0.244633825,-1009,-0.308930575
2023-10-26 13:36:21.852,31314,103,0,-854,-0.26147345,-972,-0.2976021
2023-10-26 13:36:21.852,31315,200,59,-342,-0.10471185,-959,-0.293621825
2023-10-26 13:36:21.882,31316,95,0,-457,-0.139921975,-971,-0.297295925
2023-10-26 13:36:21.882,31317,198,62,-890,-0.27249575,-1005,-0.307705875
2023-10-26 13:36:21.882,31318,101,0,-704,-0.2155472,-1062,-0.32515785
2023-10-26 13:36:21.882,31319,198,63,-412,-0.1261441,-1137,-0.348120975
2023-10-26 13:36:21.882,31320,99,0,-223,-0.068277025,-1208,-0.3698594
2023-10-26 13:36:21.882,31321,197,61,-884,-0.2706587,-1260,-0.3857805
2023-10-26 13:36:21.882,31322,99,0,-867,-0.265453725,-1295,-0.396496625
2023-10-26 13:36:21.912,31323,198,63,-319,-0.097669825,-1316,-0.4029263
2023-10-26 13:36:21.912,31324,99,0,-195,-0.059704125,-1315,-0.402620125
2023-10-26 13:36:21.912,31325,199,64,-885,-0.270964875,-1283,-0.392822525
2023-10-26 13:36:21.912,31326,96,0,-719,-0.220139825,-1229,-0.376289075
2023-10-26 13:36:21.912,31327,199,63,-241,-0.073788175,-1164,-0.3563877
2023-10-26 13:36:21.912,31328,98,0,-174,-0.05327445,-1083,-0.331587525
2023-10-26 13:36:21.912,31329,195,63,-510,-0.15614925,-980,-0.3000515
2023-10-26 13:36:21.942,31330,99,0,-711,-0.217690425,-876,-0.2682093
2023-10-26 13:36:21.942,31331,197,62,-115,-0.035210125,-790,-0.24187825
2023-10-26 13:36:21.942,31332,96,0,140,0.0428645,-717,-0.219527475
2023-10-26 13:36:21.942,31333,196,61,-66,-0.02020755,-651,-0.199319925
2023-10-26 13:36:21.942,31334,97,0,-559,-0.171151825,-601,-0.184011175
2023-10-26 13:36:21.942,31335,198,62,66,0.02020755,-581,-0.177887675
2023-10-26 13:36:21.942,31336,96,0,188,0.0575609,-586,-0.17941855
2023-10-26 13:36:21.942,31337,197,58,-576,-0.1763568,-596,-0.1824803
2023-10-26 13:36:21.942,31338,97,0,-598,-0.18309265,-604,-0.1849297
2023-10-26 13:36:21.972,31339,198,59,206,0.06307205,-615,-0.188297625
2023-10-26 13:36:21.972,31340,93,0,385,0.117877375,-619,-0.189522325
2023-10-26 13:36:21.972,31341,195,56,-204,-0.0624597,-604,-0.1849297
2023-10-26 13:36:21.972,31342,95,0,-479,-0.146657825,-584,-0.1788062
2023-10-26 13:36:21.972,31343,192,58,322,0.09858835,-574,-0.17574445
2023-10-26 13:36:21.972,31344,95,0,303,0.092771025,-567,-0.173601225
2023-10-26 13:36:21.972,31345,194,55,-92,-0.0281681,-554,-0.16962095
2023-10-26 13:36:22.002,31346,96,0,-556,-0.1702333,-541,-0.165640675
2023-10-26 13:36:22.002,31347,192,56,-81,-0.024800175,-535,-0.163803625
2023-10-26 13:36:22.002,31348,94,0,-88,-0.0269434,-526,-0.16104805
2023-10-26 13:36:22.002,31349,192,54,-724,-0.2216707,-495,-0.151556625
2023-10-26 13:36:22.002,31350,85,0,-670,-0.20513725,-448,-0.1371664
2023-10-26 13:36:22.032,31351,190,56,-549,-0.168090075,-407,-0.124613225
2023-10-26 13:36:22.032,31352,96,0,-129,-0.039496575,-373,-0.114203275
2023-10-26 13:36:22.032,31353,191,52,-695,-0.212791625,-331,-0.101343925
2023-10-26 13:36:22.072,31354,97,0,-976,-0.2988268,-293,-0.089709275
2023-10-26 13:36:22.072,31355,186,54,-446,-0.13655405,-270,-0.08266725
2023-10-26 13:36:22.072,31356,97,0,-430,-0.13165525,-248,-0.0759314
2023-10-26 13:36:22.072,31357,185,52,-1051,-0.321789925,-214,-0.06552145
2023-10-26 13:36:22.072,31358,98,0,-1378,-0.42190915,-177,-0.054192975
2023-10-26 13:36:22.072,31359,186,50,-939,-0.287498325,-152,-0.0465386
2023-10-26 13:36:22.102,31360,98,0,-749,-0.229325075,-136,-0.0416398
2023-10-26 13:36:22.102,31361,184,51,-1430,-0.43783025,-115,-0.035210125
2023-10-26 13:36:22.102,31362,105,0,-1559,-0.477326825,-91,-0.027861925
2023-10-26 13:36:22.102,31363,177,47,-998,-0.30556265,-81,-0.024800175
2023-10-26 13:36:22.102,31364,104,0,-971,-0.297295925,-83,-0.025412525
2023-10-26 13:36:22.102,31365,181,47,-1272,-0.3894546,-84,-0.0257187
2023-10-26 13:36:22.102,31366,102,0,-1425,-0.436299375,-88,-0.0269434
2023-10-26 13:36:22.102,31367,180,47,-1092,-0.3343431,-113,-0.034597775
2023-10-26 13:36:22.102,31368,102,0,-792,-0.2424906,-154,-0.04715095
2023-10-26 13:36:22.132,31369,177,46,-1161,-0.355469175,-191,-0.058479425
2023-10-26 13:36:22.132,31370,106,0,-1329,-0.406906575,-225,-0.068889375
2023-10-26 13:36:22.132,31371,178,47,-963,-0.294846525,-275,-0.084198125
2023-10-26 13:36:22.132,31372,106,0,-926,-0.28351805,-337,-0.103180975
2023-10-26 13:36:22.132,31373,175,43,-1386,-0.42435855,-399,-0.122163825
2023-10-26 13:36:22.132,31374,109,0,-1575,-0.482225625,-460,-0.1408405
2023-10-26 13:36:22.132,31375,175,45,-1164,-0.3563877,-531,-0.162578925
2023-10-26 13:36:22.132,31376,107,0,-1091,-0.334036925,-604,-0.1849297
2023-10-26 13:36:22.132,31377,173,41,-1238,-0.37904465,-664,-0.2033002
2023-10-26 13:36:22.132,31378,112,0,-1459,-0.446709325,-719,-0.220139825
2023-10-26 13:36:22.162,31379,173,43,-1153,-0.353019775,-784,-0.2400412
2023-10-26 13:36:22.172,31380,112,0,-932,-0.2853551,-854,-0.26147345
2023-10-26 13:36:22.172,31381,171,42,-1156,-0.3539383,-916,-0.2804563
2023-10-26 13:36:22.172,31382,113,0,-1500,-0.4592625,-970,-0.29698975
2023-10-26 13:36:22.172,31383,170,41,-1092,-0.3343431,-1026,-0.31413555
2023-10-26 13:36:22.172,31384,112,0,-830,-0.25412525,-1082,-0.33128135
2023-10-26 13:36:22.202,31385,171,44,-1383,-0.423440025,-1119,-0.342609825
2023-10-26 13:36:22.202,31386,114,0,-1532,-0.4690601,-1139,-0.348733325
2023-10-26 13:36:22.202,31387,169,41,-1234,-0.37781995,-1155,-0.353632125
2023-10-26 13:36:22.202,31388,115,0,-771,-0.236060925,-1169,-0.357918575
2023-10-26 13:36:22.202,31389,168,43,-1269,-0.388536075,-1170,-0.35822475
2023-10-26 13:36:22.202,31390,115,0,-1476,-0.4519143,-1162,-0.35577535
2023-10-26 13:36:22.202,31391,169,40,-937,-0.286885975,-1159,-0.354856825
2023-10-26 13:36:22.202,31392,114,0,-1004,-0.3073997,-1163,-0.356081525
2023-10-26 13:36:22.232,31393,168,40,-1311,-0.401395425,-1164,-0.3563877
2023-10-26 13:36:22.232,31394,116,0,-1570,-0.48069475,-1163,-0.356081525
2023-10-26 13:36:22.232,31395,166,41,-1173,-0.359143275,-1171,-0.358530925
2023-10-26 13:36:22.232,31396,117,0,-949,-0.290560075,-1188,-0.3637359
2023-10-26 13:36:22.232,31397,165,41,-1476,-0.4519143,-1200,-0.36741
2023-10-26 13:36:22.232,31398,119,0,-1724,-0.5278457,-1206,-0.36924705
2023-10-26 13:36:22.272,31399,165,42,-1301,-0.398333675,-1215,-0.372002625
2023-10-26 13:36:22.272,31400,119,0,-874,-0.26759695,-1223,-0.374452025
2023-10-26 13:36:22.272,31401,164,40,-1283,-0.392822525,-1220,-0.3735335
2023-10-26 13:36:22.272,31402,119,0,-1549,-0.474265075,-1212,-0.3710841
2023-10-26 13:36:22.272,31403,163,42,-1188,-0.3637359,-1212,-0.3710841
2023-10-26 13:36:22.302,31404,118,0,-626,-0.19166555,-1216,-0.3723088
2023-10-26 13:36:22.302,31405,160,41,-945,-0.289335375,-1213,-0.371390275
2023-10-26 13:36:22.302,31406,122,0,-1327,-0.406294225,-1203,-0.368328525
2023-10-26 13:36:22.302,31407,157,40,-1022,-0.31291085,-1196,-0.3661853
2023-10-26 13:36:22.302,31408,122,0,-790,-0.24187825,-1194,-0.36557295
2023-10-26 13:36:22.302,31409,159,39,-1081,-0.330975175,-1189,-0.364042075
2023-10-26 13:36:22.332,31410,119,0,-1215,-0.372002625,-1185,-0.362817375
2023-10-26 13:36:22.332,31411,156,40,-843,-0.258105525,-1190,-0.36434825
2023-10-26 13:36:22.332,31412,125,0,-393,-0.120326775,-1203,-0.368328525
2023-10-26 13:36:22.332,31413,155,39,-1182,-0.36189885,-1209,-0.370165575
2023-10-26 13:36:22.332,31414,126,0,-1191,-0.364654425,-1211,-0.370777925
2023-10-26 13:36:22.332,31415,156,38,-782,-0.23942885,-1221,-0.373839675
2023-10-26 13:36:22.372,31416,126,0,-496,-0.1518628,-1239,-0.379350825
2023-10-26 13:36:22.372,31417,152,38,-734,-0.22473245,-1251,-0.383024925
2023-10-26 13:36:22.372,31418,130,0,-1049,-0.321177575,-1255,-0.384249625
2023-10-26 13:36:22.372,31419,154,37,-835,-0.255656125,-1265,-0.387311375
2023-10-26 13:36:22.372,31420,128,0,-546,-0.16717155,-1279,-0.391597825
2023-10-26 13:36:22.372,31421,152,33,-905,-0.277088375,-1277,-0.390985475
2023-10-26 13:36:22.372,31422,131,0,-1162,-0.35577535,-1259,-0.385474325
2023-10-26 13:36:22.372,31423,153,32,-864,-0.2645352,-1243,-0.380575525
2023-10-26 13:36:22.402,31424,132,0,-501,-0.153393675,-1229,-0.376289075
