Time, Sample Count, IR Count, Red Count, Raw ECG, Raw ECG (mV), Filtered ECG, Filtered ECG (mV)
2023-10-26 13:47:43.978,94672,203964,185358,-10784,-3.3017912,6778,2.07525415
2023-10-26 13:47:44.009,94673,203986,185370,61835,18.932331125,1782,0.54560385
2023-10-26 13:47:44.039,94674,203994,185369,27510,8.42287425,12396,3.7953453
2023-10-26 13:47:44.078,94675,204032,185376,-49022,-15.00931085,17408,5.3298944
2023-10-26 13:47:44.078,94676,204021,185361,-12562,-3.84617035,6527,1.998404225
2023-10-26 13:47:44.078,94677,204049,185373,61042,18.68953435,999,0.305868825
2023-10-26 13:47:44.078,94678,204052,185377,28506,8.72782455,11407,3.492538225
2023-10-26 13:47:44.109,94679,204070,185375,-47708,-14.6069969,16688,5.1094484
2023-10-26 13:47:44.109,94680,204066,185363,-13921,-4.262262175,6040,1.849297
2023-10-26 13:47:44.109,94681,204064,185361,60026,18.37846055,302,0.09246485
2023-10-26 13:47:44.109,94682,204069,185338,28427,8.703636725,10570,3.23626975
2023-10-26 13:47:44.109,94683,204063,185333,-48367,-14.808766225,16217,4.965239975
2023-10-26 13:47:44.109,94684,204032,185308,-13900,-4.2558325,5932,1.8162301
2023-10-26 13:47:44.109,94685,203993,185302,60549,18.538590075,235,0.071951125
2023-10-26 13:47:44.109,94686,203956,185265,30982,9.48591385,10428,3.1927929
2023-10-26 13:47:44.143,94687,203918,185228,-47993,-14.694256775,15826,4.84552555
2023-10-26 13:47:44.143,94688,203842,185199,-16059,-4.916864325,5033,1.540978775
2023-10-26 13:47:44.143,94689,203773,185167,59020,18.0704485,-1156,-0.3539383
2023-10-26 13:47:44.143,94690,203694,185109,29425,9.009199375,8994,2.75373795
2023-10-26 13:47:44.143,94691,203601,185075,-47596,-14.5727053,14847,4.545780225
2023-10-26 13:47:44.144,94692,203505,185039,-15193,-4.651716775,4509,1.380543075
2023-10-26 13:47:44.144,94693,203403,184993,60089,18.397749575,-1350,-0.41333625
2023-10-26 13:47:44.147,94694,203326,184958,32443,9.933235525,9319,2.853244825
2023-10-26 13:47:44.147,94695,203231,184924,-46511,-14.240505425,15816,4.8424638
2023-10-26 13:47:44.178,94696,203121,184873,-17578,-5.38194415,5565,1.703863875
2023-10-26 13:47:44.178,94697,202996,184834,58015,17.762742625,-1163,-0.356081525
2023-10-26 13:47:44.178,94698,202900,184766,31838,9.74799965,8456,2.5890158
2023-10-26 13:47:44.178,94699,202780,184719,-47136,-14.4318648,14501,4.439843675
2023-10-26 13:47:44.178,94700,202644,184674,-18177,-5.565342975,4448,1.3618664
2023-10-26 13:47:44.178,94701,202566,184623,57973,17.749883275,-1617,-0.495084975
2023-10-26 13:47:44.178,94702,202435,184574,33240,10.177257,8907,2.727100725
2023-10-26 13:47:44.209,94703,202340,184540,-47601,-14.574236175,15722,4.81368335
2023-10-26 13:47:44.209,94704,202254,184483,-20264,-6.2043302,5552,1.6998836
2023-10-26 13:47:44.209,94705,202159,184453,57041,17.464528175,-1500,-0.4592625
2023-10-26 13:47:44.209,94706,202080,184422,33578,10.28074415,8059,2.467464325
2023-10-26 13:47:44.209,94707,202018,184402,-47921,-14.672212175,14513,4.443517775
2023-10-26 13:47:44.209,94708,202001,184388,-21902,-6.70584485,4707,1.441165725
2023-10-26 13:47:44.209,94709,201955,184381,55827,17.092831725,-1695,-0.518966625
2023-10-26 13:47:44.209,94710,201936,184362,34524,10.5703857,8472,2.5939146
2023-10-26 13:47:44.209,94711,201909,184365,-45534,-13.94137245,15483,4.740507525
2023-10-26 13:47:44.245,94712,201896,184367,-21067,-6.450188725,5680,1.739074
2023-10-26 13:47:44.245,94713,201862,184348,56120,17.182541,-1423,-0.435687025
2023-10-26 13:47:44.245,94714,201846,184312,35351,10.823592425,8154,2.49655095
2023-10-26 13:47:44.245,94715,201823,184322,-47210,-14.45452175,15116,4.6281413
2023-10-26 13:47:44.245,94716,201808,184310,-24076,-7.3714693,5395,1.651814125
2023-10-26 13:47:44.245,94717,201803,184297,56060,17.1641705,-1855,-0.567954625
2023-10-26 13:47:44.245,94718,201800,184299,37636,11.5232023,7528,2.3048854
2023-10-26 13:47:44.245,94719,201809,184302,-45402,-13.90095735,14463,4.428209025
2023-10-26 13:47:44.275,94720,201814,184286,-24564,-7.5208827,4626,1.41636555
2023-10-26 13:47:44.275,94721,201812,184299,54325,16.632956875,-2783,-0.852085025
2023-10-26 13:47:44.275,94722,201809,184292,36863,11.286529025,6874,2.10464695
2023-10-26 13:47:44.275,94723,201827,184314,-45728,-14.0007704,14411,4.412287925
2023-10-26 13:47:44.275,94724,201853,184322,-25328,-7.7548004,4805,1.471170875
2023-10-26 13:47:44.275,94725,201870,184322,54221,16.601114675,-3054,-0.93505845
2023-10-26 13:47:44.275,94726,201879,184322,37747,11.557187725,6007,1.839193225
2023-10-26 13:47:44.275,94727,201923,184333,-45630,-13.97076525,13534,4.14377245
2023-10-26 13:47:44.275,94728,201936,184343,-26286,-8.04811605,4490,1.37472575
2023-10-26 13:47:44.275,94729,201984,184381,53090,16.25483075,-2819,-0.863107325
2023-10-26 13:47:44.305,94730,202018,184384,37765,11.562698875,6673,2.043105775
2023-10-26 13:47:44.305,94731,202056,184397,-44964,-13.7668527,14506,4.44137455
2023-10-26 13:47:44.305,94732,202099,184420,-27055,-8.283564625,5157,1.578944475
2023-10-26 13:47:44.305,94733,202127,184435,52398,16.04295765,-2906,-0.88974455
2023-10-26 13:47:44.305,94734,202158,184441,38784,11.8746912,6252,1.9142061
2023-10-26 13:47:44.305,94735,202172,184460,-45051,-13.793489925,14328,4.3868754
2023-10-26 13:47:44.305,94736,202216,184463,-27765,-8.500948875,5165,1.581393875
2023-10-26 13:47:44.305,94737,202240,184474,52271,16.004073425,-3162,-0.96812535
2023-10-26 13:47:44.335,94738,202294,184469,39978,12.24026415,5653,1.730807275
2023-10-26 13:47:44.335,94739,202286,184492,-45020,-13.7839985,13839,4.237155825
2023-10-26 13:47:44.335,94740,202325,184498,-29806,-9.12585205,5078,1.55475665
2023-10-26 13:47:44.335,94741,202365,184524,50488,15.4581634,-3038,-0.93015965
2023-10-26 13:47:44.335,94742,202391,184529,40162,12.29660035,5740,1.7574445
2023-10-26 13:47:44.335,94743,202437,184564,-43582,-13.34371885,13760,4.212968
2023-10-26 13:47:44.365,94744,202492,184596,-29122,-8.91642835,4661,1.427081675
2023-10-26 13:47:44.365,94745,202551,184637,51956,15.9076283,-3848,-1.1781614
2023-10-26 13:47:44.365,94746,202603,184657,42976,13.1581768,4849,1.484642575
2023-10-26 13:47:44.365,94747,202651,184702,-42492,-13.0099881,13314,4.07641395
2023-10-26 13:47:44.365,94748,202722,184732,-32164,-9.8478127,4801,1.469946175
2023-10-26 13:47:44.395,94749,202743,184774,48120,14.733141,-3588,-1.0985559
2023-10-26 13:47:44.395,94750,202799,184774,42133,12.900071275,4912,1.5039316
2023-10-26 13:47:44.395,94751,202811,184795,-43422,-13.29473085,13252,4.0574311
2023-10-26 13:47:44.395,94752,202819,184786,-33088,-10.1307184,4559,1.395851825
2023-10-26 13:47:44.395,94753,202833,184817,48494,14.84765045,-4044,-1.2381717
2023-10-26 13:47:44.395,94754,202858,184808,43579,13.342800325,4566,1.39799505
2023-10-26 13:47:44.395,94755,202870,184813,-42648,-13.0577514,13352,4.0880486
2023-10-26 13:47:44.395,94756,202881,184823,-33247,-10.179400225,4853,1.485867275
2023-10-26 13:47:44.425,94757,202878,184820,47674,14.59658695,-4143,-1.268483025
2023-10-26 13:47:44.425,94758,202891,184814,42901,13.135213675,3985,1.220107375
2023-10-26 13:47:44.425,94759,202876,184819,-43144,-13.2096142,12766,3.90863005
2023-10-26 13:47:44.425,94760,202869,184806,-34663,-10.612944025,4607,1.410548225
2023-10-26 13:47:44.425,94761,202871,184807,46108,14.1171169,-4104,-1.2565422
2023-10-26 13:47:44.425,94762,202878,184795,41868,12.8189349,4390,1.34410825
2023-10-26 13:47:44.455,94763,202874,184801,-43154,-13.21267595,13752,4.2105186
2023-10-26 13:47:44.455,94764,202862,184792,-35972,-11.0137271,5789,1.772447075
2023-10-26 13:47:44.455,94765,202857,184774,45151,13.824107425,-3603,-1.103148525
2023-10-26 13:47:44.455,94766,202889,184799,43172,13.2181871,4012,1.2283741
2023-10-26 13:47:44.455,94767,202865,184802,-42615,-13.047647625,13030,3.98946025
2023-10-26 13:47:44.455,94768,202891,184804,-37320,-11.426451,4885,1.495664875
2023-10-26 13:47:44.455,94769,202906,184811,44765,13.705923875,-4839,-1.481580825
2023-10-26 13:47:44.485,94770,202944,184804,43416,13.2928938,2635,0.806771125
2023-10-26 13:47:44.485,94771,202963,184824,-42457,-12.999271975,11922,3.65021835
2023-10-26 13:47:44.485,94772,202956,184814,-38342,-11.73936185,4284,1.3116537
2023-10-26 13:47:44.485,94773,202970,184834,43922,13.44781835,-4903,-1.501176025
2023-10-26 13:47:44.485,94774,203018,184836,46162,14.13365035,3031,0.928016425
2023-10-26 13:47:44.485,94775,203041,184851,-40005,-12.248530875,12610,3.86086675
2023-10-26 13:47:44.485,94776,203071,184856,-37997,-11.633731475,4876,1.4929093
2023-10-26 13:47:44.525,94777,203101,184886,42993,13.163381775,-4969,-1.521383575
2023-10-26 13:47:44.525,94778,203130,184902,44178,13.52619915,2024,0.6196982
2023-10-26 13:47:44.525,94779,203172,184923,-41698,-12.76688515,10961,3.355984175
2023-10-26 13:47:44.525,94780,203196,184919,-39524,-12.1012607,3126,0.95710305
2023-10-26 13:47:44.525,94781,203219,184938,42389,12.978452075,-6536,-2.0011598
2023-10-26 13:47:44.555,94782,203264,184957,45185,13.834517375,975,0.298520625
2023-10-26 13:47:44.555,94783,203258,184944,-42624,-13.0504032,10814,3.31097645
2023-10-26 13:47:44.555,94784,203325,184974,-41972,-12.8507771,3552,1.0875336
2023-10-26 13:47:44.585,94785,203341,184984,41119,12.589609825,-6252,-1.9142061
2023-10-26 13:47:44.585,94786,203367,184991,47235,14.462176125,908,0.2780069
2023-10-26 13:47:44.585,94787,203385,185007,-39006,-11.94266205,10571,3.236575925
2023-10-26 13:47:44.615,94788,203413,185006,-40838,-12.50357465,3215,0.984352625
2023-10-26 13:47:44.615,94789,203442,185009,41010,12.55623675,-6780,-2.0758665
2023-10-26 13:47:44.615,94790,203480,185031,48640,14.892352,449,0.137472575
2023-10-26 13:47:44.615,94791,203491,185048,-39313,-12.036657775,10846,3.32077405
2023-10-26 13:47:44.645,94792,203511,185048,-43905,-13.442613375,4249,1.300937575
2023-10-26 13:47:44.645,94793,203553,185062,38521,11.794167175,-5655,-1.731419625
2023-10-26 13:47:44.645,94794,203562,185080,47797,14.634246475,1090,0.33373075
2023-10-26 13:47:44.645,94795,203608,185084,-38523,-11.794779525,10821,3.313119675
2023-10-26 13:47:44.645,94796,203673,185107,-43000,-13.165525,3701,1.133153675
2023-10-26 13:47:44.675,94797,203688,185129,39144,11.9849142,-6541,-2.002690675
2023-10-26 13:47:44.675,94798,203733,185148,49614,15.19056645,115,0.035210125
2023-10-26 13:47:44.675,94799,203781,185177,-36748,-11.2513189,9929,3.040011575
2023-10-26 13:47:44.675,94800,203825,185177,-43034,-13.17593495,2610,0.79911675
2023-10-26 13:47:44.705,94801,203860,185197,38559,11.805801825,-8039,-2.461340825
2023-10-26 13:47:44.705,94802,203909,185230,50577,15.485412975,-1236,-0.3784323
2023-10-26 13:47:44.705,94803,203931,185228,-35648,-10.9145264,9672,2.9613246
2023-10-26 13:47:44.895,94804,203982,185240,-44977,-13.770832975,3673,1.124580775
2023-10-26 13:47:44.895,94805,204010,185259,37261,11.408386675,-6517,-1.995342475
2023-10-26 13:47:44.925,94806,204031,185279,50996,15.6137003,11,0.003367925
2023-10-26 13:47:44.925,94807,204034,185293,-34680,-10.618149,10657,3.262906975
2023-10-26 13:47:44.925,94808,204097,185294,-44827,-13.724906725,4261,1.304611675
2023-10-26 13:47:44.925,94809,204114,185295,36299,11.113846325,-6676,-2.0440243
2023-10-26 13:47:44.925,94810,204149,185317,50873,15.576040775,-765,-0.234223875
2023-10-26 13:47:44.925,94811,204170,185327,-34669,-10.614781075,9739,2.981838325
2023-10-26 13:47:44.925,94812,204214,185341,-46151,-14.130282425,3512,1.0752866
2023-10-26 13:47:44.925,94813,204242,185344,34830,10.66407525,-7308,-2.2375269
2023-10-26 13:47:44.925,94814,204275,185353,51072,15.6369696,-1303,-0.398946025
2023-10-26 13:47:44.925,94815,204300,185358,-34119,-10.446384825,9659,2.957344325
2023-10-26 13:47:44.955,94816,204346,185368,-48754,-14.92725595,4142,1.26817685
2023-10-26 13:47:44.955,94817,204358,185384,29276,8.9635793,-6206,-1.90012205
2023-10-26 13:47:44.955,94818,204385,185392,46313,14.179882775,-10,-0.00306175
2023-10-26 13:47:44.955,94819,204388,185391,-38700,-11.8489725,11097,3.397623975
2023-10-26 13:47:44.955,94820,204424,185418,-52045,-15.934877875,5319,1.628544825
2023-10-26 13:47:44.955,94821,204457,185426,28634,8.76701495,-6029,-1.845929075
2023-10-26 13:47:44.955,94822,204527,185467,46875,14.351953125,-818,-0.25045115
2023-10-26 13:47:44.955,94823,204527,185455,-38396,-11.7558953,10073,3.084100775
2023-10-26 13:47:44.955,94824,204562,185490,-53305,-16.320658375,4692,1.4365731
2023-10-26 13:47:44.955,94825,204613,185494,26825,8.213144375,-6221,-1.904714675
2023-10-26 13:47:44.955,94826,204656,185526,47072,14.4122696,-811,-0.248307925
2023-10-26 13:47:44.955,94827,204708,185552,-36975,-11.320820625,10217,3.128189975
2023-10-26 13:47:44.955,94828,204733,185551,-53712,-16.4452716,4832,1.4794376
2023-10-26 13:47:44.955,94829,204766,185571,26831,8.214981425,-6462,-1.97850285
2023-10-26 13:47:44.985,94830,204812,185585,49003,15.003493525,-1515,-0.463855125
2023-10-26 13:47:44.985,94831,204844,185620,-34907,-10.687650725,9449,2.893047575
2023-10-26 13:47:44.985,94832,204898,185631,-52500,-16.0741875,4173,1.277668275
2023-10-26 13:47:44.985,94833,204935,185632,27564,8.4394077,-7593,-2.324786775
2023-10-26 13:47:44.985,94834,204978,185658,50502,15.46244985,-3676,-1.1254993
2023-10-26 13:47:44.985,94835,205010,185667,-34274,-10.49384195,6408,1.9619694
2023-10-26 13:47:44.985,94836,205028,185668,-53756,-16.4587433,635,0.194421125
2023-10-26 13:47:44.985,94837,205047,185684,25929,7.938811575,-11213,-3.433140275
2023-10-26 13:47:44.985,94838,205071,185703,50686,15.51878605,-6878,-2.10587165
2023-10-26 13:47:44.985,94839,205086,185712,-33267,-10.185523725,3882,1.18857135
2023-10-26 13:47:44.985,94840,205141,185712,-55409,-16.964850575,-1299,-0.397721325
2023-10-26 13:47:44.985,94841,205163,185745,22063,6.755139025,-12771,-3.910160925
2023-10-26 13:47:44.985,94842,205204,185728,46054,14.10058345,-7969,-2.439908575
2023-10-26 13:47:44.985,94843,205237,185764,-37088,-11.3554184,3717,1.138052475
2023-10-26 13:47:44.985,94844,205263,185782,-57664,-17.6552752,-537,-0.164415975
2023-10-26 13:47:44.985,94845,205298,185814,21384,6.5472462,-11846,-3.62694905
2023-10-26 13:47:45.025,94846,205336,185829,49295,15.092896625,-7394,-2.26385795
2023-10-26 13:47:45.025,94847,205374,185829,-33847,-10.363105225,4109,1.258073075
2023-10-26 13:47:45.025,94848,205430,185856,-58694,-17.97063545,-74,-0.02265695
2023-10-26 13:47:45.025,94849,205430,185862,19987,6.119519725,-11219,-3.434977325
2023-10-26 13:47:45.025,94850,205440,185864,50480,15.455714,-6453,-1.975747275
2023-10-26 13:47:45.025,94851,205392,185842,-31820,-9.7424885,5531,1.693453925
2023-10-26 13:47:45.025,94852,205374,185827,-57236,-17.5242323,1534,0.46967245
2023-10-26 13:47:45.025,94853,205316,185813,19252,5.8944811,-10110,-3.09542925
2023-10-26 13:47:45.025,94854,205233,185759,49614,15.19056645,-6178,-1.89154915
2023-10-26 13:47:45.025,94855,205168,185737,-31672,-9.6971746,5294,1.62089045
2023-10-26 13:47:45.025,94856,205105,185714,-59452,-18.2027161,1059,0.324239325
2023-10-26 13:47:45.025,94857,205033,185680,18365,5.622903875,-11127,-3.406809225
2023-10-26 13:47:45.025,94858,204957,185650,50769,15.544198575,-8081,-2.474200175
2023-10-26 13:47:45.025,94859,204875,185633,-30702,-9.40018485,2626,0.80401555
2023-10-26 13:47:45.055,94860,204842,185602,-59647,-18.262420225,-1877,-0.574690475
2023-10-26 13:47:45.055,94861,204754,185569,17249,5.281212575,-13873,-4.247565775
2023-10-26 13:47:45.055,94862,204684,185548,50423,15.438262025,-10233,-3.133088775
2023-10-26 13:47:45.055,94863,204610,185511,-30429,-9.316599075,1550,0.47457125
2023-10-26 13:47:45.055,94864,204532,185492,-59303,-18.157096025,-2065,-0.632251375
2023-10-26 13:47:45.055,94865,204474,185467,16679,5.106692825,-13983,-4.281245025
2023-10-26 13:47:45.055,94866,204415,185459,51791,15.857109425,-10314,-3.15788895
2023-10-26 13:47:45.055,94867,204363,185443,-28135,-8.614233625,2227,0.681851725
2023-10-26 13:47:45.055,94868,204311,185415,-59188,-18.1218859,-363,-0.111141525
2023-10-26 13:47:45.055,94869,204266,185405,15992,4.8963506,-11933,-3.653586275
2023-10-26 13:47:45.055,94870,204233,185403,50805,15.555220875,-8969,-2.746083575
2023-10-26 13:47:45.085,94871,204203,185382,-28783,-8.812635025,2498,0.76482515
2023-10-26 13:47:45.085,94872,204191,185386,-60260,-18.4501055,-922,-0.28229335
2023-10-26 13:47:45.085,94873,204184,185384,14343,4.391468025,-13081,-4.005075175
2023-10-26 13:47:45.085,94874,204175,185379,50747,15.537462725,-10114,-3.09665395
2023-10-26 13:47:45.085,94875,204161,185380,-27792,-8.5092156,2021,0.618779675
2023-10-26 13:47:45.085,94876,204161,185380,-61278,-18.76179165,-765,-0.234223875
2023-10-26 13:47:45.085,94877,204176,185372,12155,3.721557125,-12855,-3.935879625
2023-10-26 13:47:45.085,94878,204180,185387,51097,15.644623975,-10221,-3.129414675
2023-10-26 13:47:45.085,94879,204167,185373,-26475,-8.105983125,1701,0.520803675
2023-10-26 13:47:45.085,94880,204192,185383,-61544,-18.8432342,-964,-0.2951527
2023-10-26 13:47:45.085,94881,204178,185372,12662,3.87678785,-12875,-3.942003125
2023-10-26 13:47:45.085,94882,204207,185387,52615,16.109397625,-10171,-3.114105925
2023-10-26 13:47:45.115,94883,204205,185382,-24360,-7.458423,2023,0.619392025
2023-10-26 13:47:45.115,94884,204267,185397,-59837,-18.320593475,-279,-0.085422825
2023-10-26 13:47:45.115,94885,204285,185419,14068,4.3072699,-12218,-3.74084615
2023-10-26 13:47:45.115,94886,204327,185433,55067,16.860138725,-9829,-3.009394075
2023-10-26 13:47:45.115,94887,204364,185460,-21828,-6.6831879,2119,0.648784825
2023-10-26 13:47:45.115,94888,204418,185486,-60467,-18.513483725,-287,-0.087872225
2023-10-26 13:47:45.115,94889,204470,185503,11854,3.62939845,-12447,-3.810960225
2023-10-26 13:47:45.115,94890,204509,185527,54994,16.83778795,-10476,-3.2074893
2023-10-26 13:47:45.115,94891,204554,185535,-21666,-6.63358755,1245,0.381187875
2023-10-26 13:47:45.115,94892,204597,185567,-62313,-19.078682775,-1150,-0.35210125
2023-10-26 13:47:45.115,94893,204631,185578,10259,3.141049325,-13479,-4.126932825
2023-10-26 13:47:45.115,94894,204674,185589,54753,16.763999775,-11650,-3.56693875
2023-10-26 13:47:45.145,94895,204707,185582,-20697,-6.336903975,581,0.177887675
2023-10-26 13:47:45.145,94896,204735,185606,-61202,-18.73852235,-1001,-0.306481175
2023-10-26 13:47:45.145,94897,204743,185603,10946,3.35139155,-12955,-3.966497125
2023-10-26 13:47:45.145,94898,204743,185603,56411,17.271637925,-11101,-3.398848675
2023-10-26 13:47:45.145,94899,204796,185627,-18248,-5.5870814,1181,0.361592675
2023-10-26 13:47:45.145,94900,204845,185639,-60526,-18.53154805,-230,-0.07042025
2023-10-26 13:47:45.145,94901,204881,185656,10895,3.335776625,-11958,-3.66124065
2023-10-26 13:47:45.145,94902,204907,185673,57034,17.46238495,-9772,-2.9919421
2023-10-26 13:47:45.145,94903,204917,185660,-17254,-5.28274345,3089,0.945774575
2023-10-26 13:47:45.145,94904,204982,185700,-61898,-18.95162015,2095,0.641436625
2023-10-26 13:47:45.175,94905,204981,185710,8488,2.5988134,-10077,-3.085325475
2023-10-26 13:47:45.175,94906,205028,185717,55758,17.07170565,-8913,-2.728937775
2023-10-26 13:47:45.175,94907,205029,185717,-18454,-5.65015345,3224,0.9871082
2023-10-26 13:47:45.175,94908,205050,185734,-63075,-19.311988125,1769,0.541623575
2023-10-26 13:47:45.175,94909,205048,185726,5449,1.668347575,-11007,-3.370068225
2023-10-26 13:47:45.175,94910,205070,185726,54632,16.7269526,-10297,-3.152683975
2023-10-26 13:47:45.175,94911,205063,185721,-16530,-5.06107275,1953,0.597959775
2023-10-26 13:47:45.175,94912,205078,185730,-62010,-18.98591175,1094,0.33495545
2023-10-26 13:47:45.175,94913,205103,185717,6902,2.11321985,-11024,-3.3752732
2023-10-26 13:47:45.175,94914,205089,185723,55960,17.133553,-9838,-3.01214965
2023-10-26 13:47:45.175,94915,205077,185728,-16642,-5.09536435,2898,0.88729515
2023-10-26 13:47:45.205,94916,205084,185731,-63048,-19.3037214,2502,0.76604985
2023-10-26 13:47:45.205,94917,205067,185704,6029,1.845929075,-9552,-2.9245836
2023-10-26 13:47:45.205,94918,205052,185702,57272,17.5352546,-8615,-2.637697625
2023-10-26 13:47:45.205,94919,205049,185685,-12378,-3.78983415,3963,1.213371525
2023-10-26 13:47:45.205,94920,205044,185695,-61456,-18.8162908,3410,1.04405675
2023-10-26 13:47:45.205,94921,205028,185688,5700,1.7451975,-9246,-2.83089405
2023-10-26 13:47:45.205,94922,205021,185686,56888,17.4176834,-9162,-2.80517535
2023-10-26 13:47:45.205,94923,205051,185690,-13137,-4.022220975,2846,0.87137405
2023-10-26 13:47:45.205,94924,205047,185708,-62814,-19.23207645,2069,0.633476075
2023-10-26 13:47:45.205,94925,205038,185704,3637,1.113558475,-10776,-3.2993418
2023-10-26 13:47:45.205,94926,205069,185699,56984,17.4470762,-11026,-3.37588555
2023-10-26 13:47:45.205,94927,205088,185706,-11496,-3.5197878,1080,0.330669
2023-10-26 13:47:45.205,94928,205120,185733,-62304,-19.0759272,1062,0.32515785
2023-10-26 13:47:45.235,94929,205110,185731,4645,1.422182875,-10984,-3.3630262
2023-10-26 13:47:45.235,94930,205162,185753,58970,18.05513975,-10622,-3.25219085
2023-10-26 13:47:45.235,94931,205188,185773,-10231,-3.132476425,1900,0.5817325
2023-10-26 13:47:45.235,94932,205210,185785,-63962,-19.58356535,1942,0.59459185
2023-10-26 13:47:45.235,94933,205248,185791,-133,-0.040721275,-10334,-3.16401245
2023-10-26 13:47:45.235,94934,205271,185816,56721,17.366552175,-10191,-3.120229425
2023-10-26 13:47:45.235,94935,205276,185823,-9639,-2.951220825,2573,0.787788275
2023-10-26 13:47:45.235,94936,205286,185809,-63466,-19.43170255,3176,0.9724118
2023-10-26 13:47:45.235,94937,205300,185805,750,0.22963125,-9073,-2.777925775
2023-10-26 13:47:45.235,94938,205330,185830,57068,17.4727949,-9468,-2.8988649
2023-10-26 13:47:45.235,94939,205329,185820,-9008,-2.7580244,2880,0.881784
2023-10-26 13:47:45.275,94940,205374,185836,-63892,-19.5621331,3380,1.0348715
2023-10-26 13:47:45.275,94941,205363,185840,-105,-0.032148375,-8974,-2.74761445
2023-10-26 13:47:45.275,94942,205401,185861,57131,17.492083925,-9653,-2.955507275
2023-10-26 13:47:45.275,94943,205423,185854,-8080,-2.473894,2535,0.776153625
2023-10-26 13:47:45.275,94944,205435,185873,-64106,-19.62765455,3010,0.92158675
2023-10-26 13:47:45.275,94945,205466,185866,-2027,-0.620616725,-9467,-2.898558725
2023-10-26 13:47:45.275,94946,205506,185854,56611,17.332872925,-10022,-3.06848585
2023-10-26 13:47:45.275,94947,205473,185867,-6602,-2.02136735,2825,0.864944375
2023-10-26 13:47:45.275,94948,205508,185882,-63671,-19.494468425,4022,1.23143585
2023-10-26 13:47:45.305,94949,205513,185873,-2578,-0.78931915,-8514,-2.60677395
2023-10-26 13:47:45.305,94950,205528,185876,57820,17.7030385,-9981,-3.055932675
2023-10-26 13:47:45.305,94951,205528,185871,-3641,-1.114783175,2079,0.636537825
2023-10-26 13:47:45.305,94952,205582,185898,-62653,-19.182782275,3014,0.92281145
2023-10-26 13:47:45.305,94953,205595,185907,-3002,-0.91913735,-9652,-2.9552011
2023-10-26 13:47:45.305,94954,205630,185921,56655,17.346344625,-11195,-3.427629125
2023-10-26 13:47:45.305,94955,205673,185919,-4801,-1.469946175,1057,0.323626975
2023-10-26 13:47:45.335,94956,205684,185940,-64312,-19.6907266,2553,0.781664775
2023-10-26 13:47:45.335,94957,205701,185942,-5987,-1.833069725,-9451,-2.893659925
2023-10-26 13:47:45.335,94958,205750,185964,56753,17.376349775,-10508,-3.2172869
2023-10-26 13:47:45.335,94959,205764,185973,-2902,-0.88851985,2029,0.621229075
2023-10-26 13:47:45.365,94960,205782,185980,-64828,-19.8487129,3470,1.06242725
2023-10-26 13:47:45.455,94961,205806,185970,-7031,-2.152716425,-9212,-2.8204841
2023-10-26 13:47:45.455,94962,205824,185992,55436,16.9731173,-11301,-3.460083675
2023-10-26 13:47:45.455,94963,205826,185988,-4700,-1.4390225,785,0.240347375
2023-10-26 13:47:45.455,94964,205865,186001,-65991,-20.204794425,2673,0.818405775
2023-10-26 13:47:45.455,94965,205874,185983,-8770,-2.68515475,-9361,-2.866104175
2023-10-26 13:47:45.495,94966,205873,185982,55396,16.9608703,-11022,-3.37466085
2023-10-26 13:47:45.495,94967,205859,185971,-3007,-0.920668225,1591,0.487124425
2023-10-26 13:47:45.495,94968,205888,185969,-66338,-20.31103715,4050,1.24000875
2023-10-26 13:47:45.495,94969,205881,185974,-9212,-2.8204841,-7951,-2.434397425
2023-10-26 13:47:45.495,94970,205889,185972,56436,17.2792923,-10157,-3.109819475
2023-10-26 13:47:45.525,94971,205901,185972,-1085,-0.332199875,1789,0.547747075
2023-10-26 13:47:45.525,94972,205932,185966,-65891,-20.174176925,3769,1.153973575
2023-10-26 13:47:45.525,94973,205911,185968,-11015,-3.372517625,-8687,-2.659742225
2023-10-26 13:47:45.585,94974,205929,185979,55734,17.06435745,-11383,-3.485190025
2023-10-26 13:47:45.585,94975,205954,185976,270,0.08266725,597,0.182786475
2023-10-26 13:47:45.585,94976,205970,185998,-65983,-20.202345025,2998,0.91791265
2023-10-26 13:47:45.585,94977,206005,186013,-12445,-3.810347875,-9362,-2.86641035
2023-10-26 13:47:45.585,94978,206074,186053,55252,16.9167811,-12195,-3.733804125
2023-10-26 13:47:45.585,94979,206094,186063,1909,0.584488075,-268,-0.0820549
2023-10-26 13:47:45.585,94980,206136,186069,-62709,-19.199928075,2197,0.672666475
2023-10-26 13:47:45.615,94981,206161,186077,-9115,-2.790785125,-10093,-3.090224275
2023-10-26 13:47:45.615,94982,206197,186091,57670,17.65711225,-13021,-3.986704675
2023-10-26 13:47:45.615,94983,206206,186096,3816,1.1683638,-1080,-0.330669
2023-10-26 13:47:45.615,94984,206211,186106,-63476,-19.4347643,1581,0.484062675
2023-10-26 13:47:45.615,94985,206221,186085,-11113,-3.402522775,-10705,-3.277603375
2023-10-26 13:47:45.615,94986,206223,186101,57182,17.50769885,-13567,-4.153876225
2023-10-26 13:47:45.615,94987,206234,186074,4391,1.344414425,-1033,-0.316278775
2023-10-26 13:47:45.625,94988,206225,186097,-63696,-19.5021228,2471,0.756558425
2023-10-26 13:47:45.655,94989,206235,186081,-12740,-3.9006695,-9513,-2.912642775
2023-10-26 13:47:45.655,94990,206241,186076,56070,17.16723225,-12863,-3.938329025
2023-10-26 13:47:45.655,94991,206234,186066,5349,1.637730075,-866,-0.26514755
2023-10-26 13:47:45.655,94992,206237,186051,-64013,-19.599180275,2495,0.763906625
2023-10-26 13:47:45.655,94993,206214,186059,-13442,-4.11560435,-9682,-2.96438635
2023-10-26 13:47:45.655,94994,206245,186074,57166,17.50280005,-13407,-4.104888225
2023-10-26 13:47:45.675,94995,206240,186045,6975,2.135570625,-1461,-0.447321675
2023-10-26 13:47:45.675,94996,206293,186071,-63969,-19.585708575,2494,0.76360045
2023-10-26 13:47:45.675,94997,206304,186063,-14865,-4.551291375,-8697,-2.662803975
2023-10-26 13:47:45.675,94998,206320,186103,55251,16.916474925,-11602,-3.55224235
2023-10-26 13:47:45.675,94999,206333,186093,6509,1.992893075,745,0.228100375
2023-10-26 13:47:45.705,95000,206387,186121,-63808,-19.5364144,4696,1.4377978
2023-10-26 13:47:45.705,95001,206404,186124,-15256,-4.6710058,-7005,-2.144755875
2023-10-26 13:47:45.705,95002,206419,186128,56451,17.283884925,-10644,-3.2589267
2023-10-26 13:47:45.705,95003,206432,186130,9566,2.92887005,1262,0.38639285
2023-10-26 13:47:45.745,95004,206454,186136,-63221,-19.356689675,4966,1.52046505
2023-10-26 13:47:45.745,95005,206437,186136,-17345,-5.310605375,-7264,-2.2240552
2023-10-26 13:47:45.745,95006,206453,186122,54560,16.704908,-11734,-3.59265745
2023-10-26 13:47:45.745,95007,206454,186116,8713,2.667702775,-255,-0.078074625
2023-10-26 13:47:45.745,95008,206427,186097,-64159,-19.643881825,3809,1.166220575
2023-10-26 13:47:45.745,95009,206386,186078,-18922,-5.79344335,-7824,-2.3955132
2023-10-26 13:47:45.745,95010,206348,186061,54731,16.757263925,-11781,-3.607047675
2023-10-26 13:47:45.775,95011,206295,186032,11202,3.42977235,267,0.081748725
2023-10-26 13:47:45.775,95012,206218,186013,-62992,-19.2865756,4689,1.435654575
2023-10-26 13:47:45.775,95013,206153,185972,-19982,-6.11798885,-7205,-2.205990875
2023-10-26 13:47:45.775,95014,206080,185938,53369,16.340253575,-11912,-3.6471566
2023-10-26 13:47:45.775,95015,206001,185894,9708,2.9723469,-504,-0.1543122
2023-10-26 13:47:45.775,95016,205905,185878,-64857,-19.857591975,3870,1.18489725
2023-10-26 13:47:45.775,95017,205808,185834,-22715,-6.954765125,-7699,-2.357241325
2023-10-26 13:47:45.775,95018,205747,185796,52536,16.0852098,-12142,-3.71757685
2023-10-26 13:47:45.775,95019,205649,185765,11605,3.553160875,-358,-0.10961065
2023-10-26 13:47:45.775,95020,205574,185746,-63994,-19.59336295,4513,1.381767775
2023-10-26 13:47:45.805,95021,205490,185705,-22455,-6.875159625,-7056,-2.1603708
2023-10-26 13:47:45.805,95022,205425,185674,53725,16.449251875,-12053,-3.690327275
2023-10-26 13:47:45.805,95023,205332,185632,14238,4.35931965,-689,-0.210954575
2023-10-26 13:47:45.805,95024,205260,185616,-62232,-19.0538826,4175,1.278280625
2023-10-26 13:47:45.805,95025,205185,185591,-21274,-6.51356695,-7426,-2.27365555
2023-10-26 13:47:45.805,95026,205129,185553,54981,16.833807675,-12755,-3.905262125
2023-10-26 13:47:45.805,95027,205052,185544,15831,4.847056425,-1562,-0.47824535
2023-10-26 13:47:45.805,95028,204993,185510,-62615,-19.171147625,3593,1.100086775
2023-10-26 13:47:45.835,95029,204924,185483,-23557,-7.212564475,-7713,-2.361527775
2023-10-26 13:47:45.835,95030,204888,185472,53123,16.264934525,-12992,-3.9778256
2023-10-26 13:47:45.835,95031,204829,185445,15335,4.695193625,-1727,-0.528764225
2023-10-26 13:47:45.835,95032,204789,185410,-61981,-18.977032675,3552,1.0875336
2023-10-26 13:47:45.835,95033,204745,185412,-23453,-7.180722275,-7937,-2.430110975
2023-10-26 13:47:45.835,95034,204732,185415,53602,16.41159235,-13840,-4.237462
2023-10-26 13:47:45.835,95035,204728,185391,17701,5.419603675,-3059,-0.936589325
2023-10-26 13:47:45.835,95036,204709,185418,-61375,-18.791490625,2261,0.692261675
2023-10-26 13:47:45.835,95037,204732,185417,-24442,-7.48352935,-8995,-2.754044125
2023-10-26 13:47:45.865,95038,204735,185411,53237,16.299838475,-14517,-4.444742475
2023-10-26 13:47:45.865,95039,204735,185416,17918,5.48604365,-2856,-0.8744358
2023-10-26 13:47:45.865,95040,204762,185444,-62302,-19.07531485,3687,1.128867225
2023-10-26 13:47:45.865,95041,204772,185443,-26886,-8.23182105,-6709,-2.054128075
2023-10-26 13:47:45.865,95042,204809,185443,52214,15.98662145,-12087,-3.700737225
2023-10-26 13:47:45.865,95043,204819,185444,20091,6.151361925,-755,-0.231162125
2023-10-26 13:47:45.865,95044,204833,185467,-60682,-18.57931135,5229,1.600989075
2023-10-26 13:47:45.865,95045,204860,185472,-27124,-8.3046907,-6029,-1.845929075
2023-10-26 13:47:45.865,95046,204894,185500,50586,15.48816855,-12397,-3.795651475
2023-10-26 13:47:45.865,95047,204917,185492,18572,5.6862821,-1644,-0.5033517
2023-10-26 13:47:45.895,95048,204919,185507,-61576,-18.8530318,4397,1.346251475
2023-10-26 13:47:45.895,95049,204967,185494,-28787,-8.813859725,-6509,-1.992893075
2023-10-26 13:47:45.895,95050,204981,185522,50833,15.563793775,-12713,-3.892402775
2023-10-26 13:47:45.895,95051,205024,185519,20740,6.3500695,-1829,-0.559994075
2023-10-26 13:47:45.895,95052,205048,185552,-61268,-18.7587299,4594,1.40656795
2023-10-26 13:47:45.895,95053,205071,185533,-30300,-9.2771025,-6058,-1.85480815
2023-10-26 13:47:45.895,95054,205104,185579,49865,15.267416375,-12288,-3.7622784
2023-10-26 13:47:45.895,95055,205134,185553,21072,6.4517196,-1361,-0.416704175
2023-10-26 13:47:45.895,95056,205169,185586,-60498,-18.52297515,5135,1.572208625
2023-10-26 13:47:45.895,95057,205205,185581,-30429,-9.316599075,-5877,-1.799390475
2023-10-26 13:47:45.895,95058,205234,185609,49190,15.06074825,-12931,-3.959148925
2023-10-26 13:47:45.925,95059,205269,185613,22273,6.819435775,-2491,-0.762681925
2023-10-26 13:47:45.925,95060,205278,185628,-60103,-18.402036025,4351,1.332167425
2023-10-26 13:47:45.925,95061,205313,185623,-30259,-9.264549325,-6073,-1.859400775
2023-10-26 13:47:45.925,95062,205322,185652,50752,15.5389936,-12928,-3.9582304
2023-10-26 13:47:45.925,95063,205353,185647,23799,7.286658825,-2636,-0.8070773
2023-10-26 13:47:45.925,95064,205382,185686,-59856,-18.3264108,4069,1.245826075
2023-10-26 13:47:45.925,95065,205431,185670,-31385,-9.609302375,-6439,-1.971460825
2023-10-26 13:47:45.955,95066,205426,185690,50189,15.366617075,-13493,-4.131219275
2023-10-26 13:47:45.955,95067,205458,185691,25522,7.81419835,-3203,-0.980678525
2023-10-26 13:47:45.955,95068,205474,185709,-59588,-18.2443559,3775,1.155810625
2023-10-26 13:47:45.955,95069,205467,185694,-32371,-9.911190925,-6728,-2.0599454
2023-10-26 13:47:45.955,95070,205495,185721,50135,15.350083625,-14070,-4.30788225
2023-10-26 13:47:45.995,95071,205495,185702,26804,8.2067147,-3779,-1.157035325
2023-10-26 13:47:45.995,95072,205483,185704,-58357,-17.867454475,3691,1.130091925
2023-10-26 13:47:45.995,95073,205489,185699,-33728,-10.3266704,-6268,-1.9191049
2023-10-26 13:47:45.995,95074,205475,185682,49148,15.0478889,-13562,-4.15234535
2023-10-26 13:47:45.995,95075,205468,185688,28360,8.683123,-3586,-1.09794355
2023-10-26 13:47:45.995,95076,205468,185678,-56091,-17.173661925,3703,1.133766025
2023-10-26 13:47:45.995,95077,205447,185660,-32219,-9.864652325,-6324,-1.9362507
2023-10-26 13:47:45.995,95078,205447,185668,50289,15.397234575,-13534,-4.14377245
2023-10-26 13:47:46.025,95079,205435,185658,30715,9.404165125,-3111,-0.952510425
2023-10-26 13:47:46.025,95080,205424,185650,-56832,-17.4005376,4680,1.432899
2023-10-26 13:47:46.025,95081,205407,185633,-36169,-11.074043575,-5277,-1.615685475
2023-10-26 13:47:46.025,95082,205406,185631,47379,14.506265325,-12892,-3.9472081
2023-10-26 13:47:46.025,95083,205390,185636,30632,9.3787526,-2794,-0.85545295
2023-10-26 13:47:46.025,95084,205393,185628,-55403,-16.963013525,5053,1.547102275
2023-10-26 13:47:46.025,95085,205413,185624,-34937,-10.696835975,-4982,-1.52536385
2023-10-26 13:47:46.025,95086,205392,185621,48537,14.860815975,-12978,-3.97353915
2023-10-26 13:47:46.055,95087,205411,185631,32176,9.8514868,-3051,-0.934139925
2023-10-26 13:47:46.055,95088,205395,185644,-53478,-16.37362665,5089,1.558124575
2023-10-26 13:47:46.055,95089,205425,185626,-33450,-10.24155375,-4633,-1.418508775
2023-10-26 13:47:46.055,95090,205438,185656,49698,15.21628515,-12773,-3.910773275
2023-10-26 13:47:46.055,95091,205456,185661,33547,10.271252725,-3023,-0.925567025
2023-10-26 13:47:46.055,95092,205457,185650,-53902,-16.50344485,5446,1.66742905
2023-10-26 13:47:46.055,95093,205481,185673,-35608,-10.9022794,-3745,-1.146625375
2023-10-26 13:47:46.085,95094,205496,185669,48085,14.722424875,-11669,-3.572756075
2023-10-26 13:47:46.085,95095,205529,185682,33832,10.3585126,-1885,-0.577139875
2023-10-26 13:47:46.085,95096,205545,185696,-53967,-16.523346225,6659,2.038819325
2023-10-26 13:47:46.115,95097,205558,185708,-38238,-11.70751965,-2924,-0.8952557
2023-10-26 13:47:46.115,95098,205587,185717,45753,14.008424775,-11809,-3.615620575
2023-10-26 13:47:46.115,95099,205629,185719,33424,10.2335932,-2725,-0.834326875
2023-10-26 13:47:46.115,95100,205639,185735,-53264,-16.3081052,5848,1.7905114
2023-10-26 13:47:46.115,95101,205678,185742,-38158,-11.68302565,-3393,-1.038851775
2023-10-26 13:47:46.144,95102,205708,185763,45640,13.973827,-12135,-3.715433625
2023-10-26 13:47:46.144,95103,205746,185766,34788,10.6512159,-3022,-0.92526085
2023-10-26 13:47:46.144,95104,205766,185778,-52705,-16.136953375,5872,1.7978596
2023-10-26 13:47:46.144,95105,205793,185779,-38318,-11.73201365,-2629,-0.804934075
2023-10-26 13:47:46.144,95106,205812,185810,45651,13.977194925,-10522,-3.22157335
2023-10-26 13:47:46.144,95107,205850,185802,35403,10.839513525,-785,-0.240347375
2023-10-26 13:47:46.144,95108,205872,185816,-52368,-16.0337724,8233,2.520738775
2023-10-26 13:47:46.144,95109,205871,185803,-40394,-12.36763295,-984,-0.3012762
2023-10-26 13:47:46.174,95110,205878,185823,44065,13.491601375,-10239,-3.134925825
2023-10-26 13:47:46.174,95111,205901,185817,36163,11.072206525,-1647,-0.504270225
2023-10-26 13:47:46.174,95112,205902,185821,-52429,-16.052449075,7012,2.1468991
2023-10-26 13:47:46.174,95113,205928,185820,-40600,-12.430705,-2203,-0.674503525
2023-10-26 13:47:46.174,95114,205937,185821,44352,13.5794736,-11653,-3.567857275
2023-10-26 13:47:46.174,95115,205945,185810,37866,11.59362255,-3170,-0.97057475
2023-10-26 13:47:46.174,95116,205972,185826,-51266,-15.69636755,5858,1.79357315
2023-10-26 13:47:46.204,95117,205955,185826,-43349,-13.272380075,-2782,-0.85177885
2023-10-26 13:47:46.204,95118,205969,185830,42082,12.88445635,-11952,-3.6594036
2023-10-26 13:47:46.204,95119,205972,185828,38111,11.668635425,-3400,-1.040995
2023-10-26 13:47:46.204,95120,205996,185820,-50785,-15.549097375,5834,1.78622495
2023-10-26 13:47:46.204,95121,205991,185815,-43567,-13.339126225,-2581,-0.790237675
2023-10-26 13:47:46.244,95122,206010,185814,41079,12.577362825,-11635,-3.562346125
2023-10-26 13:47:46.244,95123,205987,185801,37898,11.60342015,-2938,-0.89954215
2023-10-26 13:47:46.244,95124,206008,185799,-50895,-15.582776625,6505,1.991668375
2023-10-26 13:47:46.244,95125,206017,185797,-43257,-13.244211975,-1983,-0.607145025
2023-10-26 13:47:46.244,95126,206041,185808,42755,13.090512125,-11671,-3.573368425
2023-10-26 13:47:46.244,95127,206016,185803,42175,12.912930625,-3584,-1.0973312
2023-10-26 13:47:46.244,95128,206041,185815,-46772,-14.3204171,5776,1.7684668
2023-10-26 13:47:46.274,95129,206057,185832,-42705,-13.075203375,-2614,-0.80034145
2023-10-26 13:47:46.274,95130,206092,185831,40513,12.404067775,-12225,-3.742989375
2023-10-26 13:47:46.274,95131,206113,185837,39139,11.983383325,-3869,-1.184591075
2023-10-26 13:47:46.274,95132,206133,185851,-50762,-15.54205535,6066,1.85725755
2023-10-26 13:47:46.274,95133,206164,185858,-46513,-14.241117775,-1988,-0.6086759
2023-10-26 13:47:46.274,95134,206177,185878,37999,11.634343825,-12038,-3.68573465
2023-10-26 13:47:46.304,95135,206228,185898,39422,12.07003085,-4243,-1.299100525
2023-10-26 13:47:46.304,95136,206232,185905,-49084,-15.0282937,5651,1.730194925
2023-10-26 13:47:46.304,95137,206282,185909,-46553,-14.253364775,-2282,-0.69869135
2023-10-26 13:47:46.304,95138,206283,185916,38300,11.7265025,-12506,-3.82902455
2023-10-26 13:47:46.304,95139,206283,185922,42065,12.879251375,-5060,-1.5492455
2023-10-26 13:47:46.304,95140,206332,185905,-46669,-14.288881075,4734,1.44943245
2023-10-26 13:47:46.304,95141,206339,185921,-45436,-13.9113673,-2924,-0.8952557
2023-10-26 13:47:46.304,95142,206328,185922,39006,11.94266205,-12596,-3.8565803
2023-10-26 13:47:46.304,95143,206341,185915,42928,13.1434804,-4284,-1.3116537
2023-10-26 13:47:46.334,95144,206357,185921,-46744,-14.3118442,6615,2.025347625
2023-10-26 13:47:46.334,95145,206384,185930,-47468,-14.5335149,-365,-0.111753875
2023-10-26 13:47:46.334,95146,206362,185934,37665,11.532081375,-10439,-3.196160825
2023-10-26 13:47:46.334,95147,206391,185923,42922,13.14164335,-3288,-1.0067034
2023-10-26 13:47:46.334,95148,206406,185933,-46947,-14.373997725,6413,1.963500275
2023-10-26 13:47:46.334,95149,206412,185919,-48762,-14.92970535,-1557,-0.476714475
2023-10-26 13:47:46.334,95150,206414,185917,36286,11.10986605,-12421,-3.802999675
2023-10-26 13:47:46.364,95151,206445,185930,43538,13.33024715,-5738,-1.75683215
2023-10-26 13:47:46.364,95152,206436,185942,-45449,-13.915347575,4019,1.230517325
2023-10-26 13:47:46.364,95153,206441,185949,-48497,-14.848568975,-3577,-1.095187975
2023-10-26 13:47:46.364,95154,206454,185948,37181,11.383892675,-14087,-4.313087225
2023-10-26 13:47:46.364,95155,206471,185934,45271,13.860848425,-6659,-2.038819325
2023-10-26 13:47:46.394,95156,206477,185942,-43809,-13.413220575,-3889,-1.190714575
2023-10-26 13:47:46.394,95157,206523,185956,-49095,-15.031661625,-3082,-0.94363135
2023-10-26 13:47:46.394,95158,206505,185964,35459,10.856659325,-3820,-1.1695885
2023-10-26 13:47:46.394,95159,206541,185965,46076,14.1073193,-4781,-1.463822675
2023-10-26 13:47:46.424,95160,206532,185966,-42561,-13.031114175,-4061,-1.243376675
2023-10-26 13:47:46.424,95161,206544,185963,-48866,-14.96154755,-3007,-0.920668225
2023-10-26 13:47:46.424,95162,206554,185975,35237,10.788688475,-3563,-1.090901525
2023-10-26 13:47:46.424,95163,206584,185962,46762,14.31735535,-4405,-1.348700875
2023-10-26 13:47:46.424,95164,206580,185969,-42287,-12.947222225,-3589,-1.098862075
2023-10-26 13:47:46.424,95165,206582,185954,-50352,-15.4165236,-2444,-0.7482917
2023-10-26 13:47:46.424,95166,206570,185959,33600,10.28748,-2973,-0.910258275
2023-10-26 13:47:46.454,95167,206572,185953,46423,14.213562025,-3934,-1.20449245
2023-10-26 13:47:46.454,95168,206546,185952,-41768,-12.7883174,-3354,-1.02691095
2023-10-26 13:47:46.454,95169,206509,185934,-50478,-15.45510165,-2469,-0.755946075
2023-10-26 13:47:46.454,95170,206487,185906,32672,10.0033496,-3217,-0.984964975
2023-10-26 13:47:46.454,95171,206406,185886,47505,14.544843375,-4306,-1.31838955
2023-10-26 13:47:46.454,95172,206343,185853,-41088,-12.5801184,-3712,-1.1365216
2023-10-26 13:47:46.494,95173,206261,185821,-52278,-16.00621665,-2673,-0.818405775
2023-10-26 13:47:46.494,95174,206176,185774,32140,9.8404645,-3231,-0.989251425
2023-10-26 13:47:46.494,95175,206083,185735,49509,15.158418075,-4187,-1.281954725
2023-10-26 13:47:46.494,95176,205986,185711,-39522,-12.10064835,-3502,-1.07222485
2023-10-26 13:47:46.494,95177,205901,185665,-52838,-16.17767465,-2365,-0.724103875
2023-10-26 13:47:46.494,95178,205796,185625,30381,9.301902675,-2824,-0.8646382
2023-10-26 13:47:46.494,95179,205679,185591,47576,14.5665818,-3723,-1.139889525
2023-10-26 13:47:46.534,95180,205584,185548,-40247,-12.322625225,-3023,-0.925567025
2023-10-26 13:47:46.534,95181,205473,185508,-52664,-16.1244002,-1895,-0.580201625
2023-10-26 13:47:46.534,95182,205354,185461,30684,9.3946737,-2409,-0.737575575
2023-10-26 13:47:46.534,95183,205285,185430,49055,15.019414625,-3427,-1.049261725
2023-10-26 13:47:46.534,95184,205187,185399,-39026,-11.94878555,-2875,-0.880253125
2023-10-26 13:47:46.534,95185,205144,185380,-53650,-16.42628875,-1858,-0.56887315
2023-10-26 13:47:46.564,95186,205092,185371,29775,9.116360625,-2442,-0.74767935
2023-10-26 13:47:46.564,95187,205026,185360,49902,15.27874485,-3540,-1.0838595
2023-10-26 13:47:46.564,95188,204987,185346,-38192,-11.6934356,-3069,-0.939651075
2023-10-26 13:47:46.564,95189,204983,185364,-55708,-17.0563969,-2099,-0.642661325
2023-10-26 13:47:46.564,95190,204962,185342,25823,7.906357025,-2712,-0.8303466
2023-10-26 13:47:46.584,95191,204966,185352,48147,14.741407725,-3820,-1.1695885
2023-10-26 13:47:46.584,95192,204922,185345,-38129,-11.674146575,-3304,-1.0116022
2023-10-26 13:47:46.584,95193,204934,185359,-56157,-17.193869475,-2234,-0.68399495
2023-10-26 13:47:46.614,95194,204942,185369,26126,7.99912805,-2756,-0.8438183
2023-10-26 13:47:46.614,95195,204950,185391,50047,15.323140225,-3847,-1.177855225
2023-10-26 13:47:46.614,95196,204967,185388,-37034,-11.33888495,-3391,-1.038239425
2023-10-26 13:47:46.744,95197,204964,185384,-56251,-17.222649925,-2384,-0.7299212
2023-10-26 13:47:46.744,95198,204950,185398,26470,8.10445225,-2921,-0.894337175
2023-10-26 13:47:46.744,95199,204988,185400,52709,16.138178075,-4003,-1.225618525
2023-10-26 13:47:46.744,95200,204995,185408,-33619,-10.293297325,-3520,-1.077736
2023-10-26 13:47:46.744,95201,205000,185402,-54801,-16.778696175,-2461,-0.753496675
2023-10-26 13:47:46.744,95202,205008,185393,26506,8.11547455,-2974,-0.91056445
2023-10-26 13:47:46.744,95203,205019,185406,52219,15.988152325,-4102,-1.25592985
2023-10-26 13:47:46.784,95204,205006,185401,-33065,-10.123676375,-3673,-1.124580775
2023-10-26 13:47:46.784,95205,205019,185402,-55580,-17.0172065,-2617,-0.801259975
2023-10-26 13:47:46.784,95206,205029,185399,25476,7.8001143,-3114,-0.95342895
2023-10-26 13:47:46.784,95207,205059,185409,53787,16.468234725,-4266,-1.30614255
2023-10-26 13:47:46.784,95208,205064,185404,-31649,-9.690132575,-3910,-1.19714425
2023-10-26 13:47:46.784,95209,205091,185421,-56105,-17.177948375,-2945,-0.901685375
2023-10-26 13:47:46.784,95210,205095,185416,24253,7.425662275,-3538,-1.08324715
2023-10-26 13:47:46.784,95211,205115,185404,53726,16.44955805,-4780,-1.4635165
2023-10-26 13:47:46.784,95212,205123,185394,-31745,-9.719525375,-4467,-1.367683725
2023-10-26 13:47:46.784,95213,205155,185431,-57860,-17.7152855,-3475,-1.063958125
2023-10-26 13:47:46.784,95214,205178,185418,22308,6.8301519,-4010,-1.22776175
2023-10-26 13:47:46.814,95215,205165,185427,53771,16.463335925,-5200,-1.59211
2023-10-26 13:47:46.814,95216,205162,185430,-30787,-9.426209725,-4801,-1.469946175
2023-10-26 13:47:46.814,95217,205205,185431,-58067,-17.778663725,-3618,-1.10774115
2023-10-26 13:47:46.814,95218,205188,185435,21619,6.619197325,-3861,-1.182141675
2023-10-26 13:47:46.814,95219,205225,185445,53915,16.507425125,-4757,-1.456474475
2023-10-26 13:47:46.814,95220,205223,185433,-30717,-9.404777475,-4127,-1.263584225
2023-10-26 13:47:46.814,95221,205255,185437,-60038,-18.38213465,-2768,-0.8474924
2023-10-26 13:47:46.814,95222,205255,185436,20491,6.273831925,-2907,-0.890050725
2023-10-26 13:47:46.814,95223,205276,185434,54832,16.7881876,-3788,-1.1597909
2023-10-26 13:47:46.814,95224,205281,185445,-28915,-8.853050125,-3186,-0.97547355
2023-10-26 13:47:46.834,95225,205295,185454,-59282,-18.15066635,-1861,-0.569791675
2023-10-26 13:47:46.834,95226,205317,185466,19984,6.1186012,-2080,-0.636844
2023-10-26 13:47:46.834,95227,205327,185475,54796,16.7771653,-3129,-0.958021575
2023-10-26 13:47:46.834,95228,205346,185488,-28936,-8.8594798,-2747,-0.841062725
2023-10-26 13:47:46.834,95229,205348,185490,-59980,-18.3643765,-1624,-0.4972282
2023-10-26 13:47:46.834,95230,205343,185475,18660,5.7132255,-2005,-0.613880875
2023-10-26 13:47:46.834,95231,205379,185500,55554,17.00924595,-3193,-0.977616775
2023-10-26 13:47:46.834,95232,205368,185485,-26568,-8.1344574,-2930,-0.89709275
2023-10-26 13:47:46.834,95233,205379,185489,-60529,-18.532466575,-1887,-0.577752225
2023-10-26 13:47:46.834,95234,205349,185474,17162,5.25457535,-2322,-0.71093835
2023-10-26 13:47:46.864,95235,205328,185451,54454,16.67245345,-3578,-1.09549415
2023-10-26 13:47:46.864,95236,205313,185456,-27036,-8.2777473,-3372,-1.0324221
2023-10-26 13:47:46.864,95237,205295,185445,-60237,-18.443063475,-2336,-0.7152248
2023-10-26 13:47:46.864,95238,205292,185440,17168,5.2564124,-2754,-0.84320595
2023-10-26 13:47:46.864,95239,205288,185440,55633,17.033433775,-4010,-1.22776175
2023-10-26 13:47:46.864,95240,205281,185432,-26630,-8.15344025,-3806,-1.16530205
2023-10-26 13:47:46.864,95241,205252,185421,-61773,-18.913348275,-2728,-0.8352454
2023-10-26 13:47:46.864,95242,205225,185408,14841,4.543943175,-3067,-0.939038725
2023-10-26 13:47:46.864,95243,205236,185409,55800,17.084565,-4253,-1.302162275
2023-10-26 13:47:46.894,95244,205246,185406,-24215,-7.414027625,-3991,-1.221944425
2023-10-26 13:47:46.894,95245,205251,185416,-60437,-18.504298475,-2840,-0.869537
2023-10-26 13:47:46.894,95246,205247,185434,15635,4.787046125,-3101,-0.949448675
2023-10-26 13:47:46.894,95247,205292,185429,56435,17.278986125,-4250,-1.30124375
2023-10-26 13:47:46.894,95248,205299,185440,-23077,-7.065600475,-3975,-1.217045625
2023-10-26 13:47:46.894,95249,205305,185453,-61546,-18.84384655,-2785,-0.852697375
2023-10-26 13:47:46.894,95250,205350,185469,14290,4.37524075,-3018,-0.92403615
2023-10-26 13:47:46.924,95251,205363,185494,57387,17.570464725,-4198,-1.28532265
2023-10-26 13:47:46.924,95252,205400,185503,-21964,-6.7248277,-3998,-1.22408765
2023-10-26 13:47:46.924,95253,205436,185515,-61598,-18.85976765,-2865,-0.877191375
2023-10-26 13:47:46.924,95254,205472,185547,12806,3.92087705,-3104,-0.9503672
2023-10-26 13:47:46.924,95255,205482,185549,55879,17.108752825,-4272,-1.3079796
2023-10-26 13:47:46.924,95256,205503,185552,-22811,-6.984157925,-4072,-1.2467446
2023-10-26 13:47:46.954,95257,205519,185557,-62820,-19.2339135,-2957,-0.905359475
2023-10-26 13:47:46.954,95258,205543,185550,12213,3.739315275,-3243,-0.992925525
2023-10-26 13:47:46.954,95259,205574,185562,57109,17.485348075,-4498,-1.37717515
2023-10-26 13:47:46.954,95260,205564,185571,-19804,-6.0634897,-4370,-1.33798475
2023-10-26 13:47:46.954,95261,205573,185566,-62064,-19.0024452,-3224,-0.9871082
2023-10-26 13:47:46.994,95262,205609,185577,10874,3.32934695,-3388,-1.0373209
2023-10-26 13:47:46.994,95263,205631,185583,57135,17.493308625,-4508,-1.3802369
2023-10-26 13:47:46.994,95264,205628,185587,-19076,-5.8405943,-4281,-1.310735175
2023-10-26 13:47:46.994,95265,205657,185591,-62456,-19.1224658,-3076,-0.9417943
2023-10-26 13:47:47.024,95266,205661,185603,8855,2.711179625,-3216,-0.9846588
2023-10-26 13:47:47.054,95267,205680,185604,56568,17.3197074,-4331,-1.326043925
2023-10-26 13:47:47.054,95268,205700,185598,-18683,-5.720267525,-4069,-1.245826075
2023-10-26 13:47:47.054,95269,205730,185605,-64036,-19.6062223,-2769,-0.847798575
2023-10-26 13:47:47.054,95270,205716,185616,6786,2.07770355,-2811,-0.860657925
2023-10-26 13:47:47.054,95271,205754,185630,54691,16.745016925,-3929,-1.202961575
2023-10-26 13:47:47.054,95272,205768,185614,-19269,-5.899686075,-3793,-1.161321775
2023-10-26 13:47:47.054,95273,205795,185626,-64164,-19.6454127,-2672,-0.8180996
2023-10-26 13:47:47.054,95274,205803,185647,6146,1.88175155,-2868,-0.8781099
2023-10-26 13:47:47.054,95275,205857,185651,56216,17.2119338,-4094,-1.25348045
2023-10-26 13:47:47.084,95276,205863,185666,-17088,-5.2319184,-4015,-1.229292625
2023-10-26 13:47:47.084,95277,205875,185666,-63711,-19.506715425,-2881,-0.882090175
2023-10-26 13:47:47.084,95278,205906,185683,6484,1.9852387,-3050,-0.93383375
2023-10-26 13:47:47.084,95279,205933,185705,57380,17.5683215,-4305,-1.318083375
2023-10-26 13:47:47.084,95280,205957,185682,-14748,-4.5154689,-4266,-1.30614255
2023-10-26 13:47:47.084,95281,205965,185701,-63398,-19.41088265,-3102,-0.94975485
2023-10-26 13:47:47.084,95282,205977,185696,7233,2.214563775,-3162,-0.96812535
2023-10-26 13:47:47.084,95283,206001,185706,59342,18.16903685,-4301,-1.316858675
2023-10-26 13:47:47.114,95284,205985,185704,-12777,-3.911997975,-4192,-1.2834856
2023-10-26 13:47:47.114,95285,206015,185729,-63661,-19.491406675,-3013,-0.922505275
2023-10-26 13:47:47.114,95286,206037,185736,4338,1.32818715,-3135,-0.959858625
2023-10-26 13:47:47.114,95287,206047,185737,58816,18.0079888,-4426,-1.35513055
2023-10-26 13:47:47.114,95288,206050,185738,-10758,-3.29383065,-4520,-1.383911
2023-10-26 13:47:47.114,95289,206080,185739,-61117,-18.712497475,-3500,-1.0716125
2023-10-26 13:47:47.114,95290,206078,185740,6135,1.878383625,-3698,-1.13223515
2023-10-26 13:47:47.114,95291,206103,185736,59907,18.342025725,-5036,-1.5418973
2023-10-26 13:47:47.144,95292,206101,185729,-10104,-3.0935922,-5183,-1.586905025
2023-10-26 13:47:47.144,95293,206124,185736,-63137,-19.330970975,-4194,-1.28409795
2023-10-26 13:47:47.144,95294,206136,185736,3812,1.1671391,-4367,-1.337066225
2023-10-26 13:47:47.144,95295,206150,185739,60663,18.573494025,-5621,-1.721009675
2023-10-26 13:47:47.144,95296,206149,185753,-8489,-2.599119575,-5606,-1.71641705
2023-10-26 13:47:47.144,95297,206196,185763,-63477,-19.435070475,-4356,-1.3336983
2023-10-26 13:47:47.144,95298,206172,185752,2321,0.710632175,-4223,-1.292977025
2023-10-26 13:47:47.144,95299,206224,185770,59168,18.1157624,-5194,-1.59027295
2023-10-26 13:47:47.174,95300,206194,185766,-7918,-2.42429365,-4953,-1.516484775
2023-10-26 13:47:47.174,95301,206243,185777,-63078,-19.31290665,-3536,-1.0826348
2023-10-26 13:47:47.174,95302,206241,185776,1318,0.40353865,-3306,-1.01221455
2023-10-26 13:47:47.174,95303,206253,185789,59910,18.34294425,-4281,-1.310735175
2023-10-26 13:47:47.174,95304,206276,185796,-5487,-1.679982225,-4093,-1.253174275
2023-10-26 13:47:47.204,95305,206297,185799,-62370,-19.09613475,-2688,-0.8229984
2023-10-26 13:47:47.204,95306,206308,185812,1319,0.403844825,-2424,-0.7421682
2023-10-26 13:47:47.204,95307,206321,185807,60465,18.512871375,-3392,-1.0385456
2023-10-26 13:47:47.204,95308,206331,185810,-4761,-1.457699175,-3264,-0.9993552
2023-10-26 13:47:47.244,95309,206354,185817,-62418,-19.11083115,-1948,-0.5964289
2023-10-26 13:47:47.244,95310,206347,185807,1848,0.5658114,-1792,-0.5486656
2023-10-26 13:47:47.244,95311,206360,185817,61810,18.92467675,-2881,-0.882090175
2023-10-26 13:47:47.274,95312,206383,185805,-2880,-0.881784,-2839,-0.869230825
2023-10-26 13:47:47.274,95313,206384,185820,-61736,-18.9020198,-1541,-0.471815675
2023-10-26 13:47:47.274,95314,206374,185818,-1039,-0.318115825,-1369,-0.419153575
2023-10-26 13:47:47.304,95315,206406,185813,59394,18.18495795,-2511,-0.768805425
2023-10-26 13:47:47.304,95316,206400,185829,-2683,-0.821467525,-2622,-0.80279085
2023-10-26 13:47:47.334,95317,206411,185814,-62139,-19.025408325,-1502,-0.45987485
2023-10-26 13:47:47.334,95318,206406,185810,-815,-0.249532625,-1461,-0.447321675
2023-10-26 13:47:47.334,95319,206432,185822,61227,18.746176725,-2679,-0.820242825
2023-10-26 13:47:47.334,95320,206442,185830,-125,-0.038271875,-2809,-0.860045575
2023-10-26 13:47:47.334,95321,206471,185835,-60511,-18.526955425,-1635,-0.500596125
2023-10-26 13:47:47.334,95322,206469,185840,-99,-0.030311325,-1520,-0.465386
2023-10-26 13:47:47.334,95323,206506,185833,61452,18.8150661,-2720,-0.832796
2023-10-26 13:47:47.334,95324,206481,185820,-417,-0.127674975,-2861,-0.875966675
2023-10-26 13:47:47.334,95325,206485,185830,-63218,-19.35577115,-1641,-0.502433175
2023-10-26 13:47:47.364,95326,206475,185838,-3284,-1.0054787,-1380,-0.4225215
2023-10-26 13:47:47.364,95327,206507,185861,60327,18.470619225,-2375,-0.727165625
2023-10-26 13:47:47.364,95328,206502,185841,1862,0.57009785,-2336,-0.7152248
2023-10-26 13:47:47.364,95329,206500,185830,-61276,-18.7611793,-996,-0.3049503
2023-10-26 13:47:47.364,95330,206452,185799,-3069,-0.939651075,-692,-0.2118731
2023-10-26 13:47:47.364,95331,206416,185790,61282,18.76301635,-1757,-0.537949475
2023-10-26 13:47:47.364,95332,206340,185759,3031,0.928016425,-1872,-0.5731596
2023-10-26 13:47:47.364,95333,206282,185734,-61961,-18.970909175,-662,-0.20268785
2023-10-26 13:47:47.364,95334,206206,185694,-5206,-1.59394705,-429,-0.131349075
2023-10-26 13:47:47.364,95335,206112,185677,60187,18.427754725,-1546,-0.47334655
2023-10-26 13:47:47.364,95336,206028,185649,2921,0.894337175,-1710,-0.52355925
2023-10-26 13:47:47.364,95337,205932,185608,-61860,-18.9399855,-533,-0.163191275
2023-10-26 13:47:47.364,95338,205825,185558,-4952,-1.5161786,-312,-0.0955266
2023-10-26 13:47:47.394,95339,205755,185538,60783,18.610235025,-1423,-0.435687025
2023-10-26 13:47:47.394,95340,205634,185486,5070,1.55230725,-1557,-0.476714475
2023-10-26 13:47:47.394,95341,205543,185455,-61328,-18.7771004,-320,-0.097976
2023-10-26 13:47:47.394,95342,205450,185424,-6792,-2.0795406,-28,-0.0085729
2023-10-26 13:47:47.394,95343,205380,185400,59423,18.193837025,-1123,-0.343834525
2023-10-26 13:47:47.394,95344,205291,185365,4386,1.34288355,-1323,-0.405069525
2023-10-26 13:47:47.394,95345,205209,185346,-63465,-19.431396375,-166,-0.05082505
2023-10-26 13:47:47.394,95346,205141,185305,-10027,-3.070016725,73,0.022350775
2023-10-26 13:47:47.394,95347,205057,185298,58366,17.87021005,-1060,-0.3245455
2023-10-26 13:47:47.424,95348,204979,185242,6006,1.83888705,-1276,-0.3906793
2023-10-26 13:47:47.424,95349,204937,185238,-60570,-18.54501975,-97,-0.029698975
2023-10-26 13:47:47.424,95350,204879,185214,-6238,-1.90991965,160,0.048988
2023-10-26 13:47:47.424,95351,204836,185192,62487,19.131957225,-1022,-0.31291085
2023-10-26 13:47:47.424,95352,204775,185161,9644,2.9527517,-1343,-0.411193025
2023-10-26 13:47:47.424,95353,204766,185156,-61096,-18.7060678,-252,-0.0771561
2023-10-26 13:47:47.424,95354,204740,185145,-9682,-2.96438635,-12,-0.0036741
2023-10-26 13:47:47.454,95355,204727,185149,60141,18.413670675,-1159,-0.354856825
2023-10-26 13:47:47.454,95356,204704,185131,9759,2.987961825,-1427,-0.436911725
2023-10-26 13:47:47.454,95357,204694,185146,-60532,-18.5333851,-248,-0.0759314
2023-10-26 13:47:47.454,95358,204687,185126,-9760,-2.988268,98,0.03000515
2023-10-26 13:47:47.494,95359,204687,185143,60505,18.525118375,-1006,-0.30801205
2023-10-26 13:47:47.494,95360,204685,185120,10804,3.3079147,-1331,-0.407518925
2023-10-26 13:47:47.494,95361,204695,185101,-62241,-19.056638175,-271,-0.082973425
2023-10-26 13:47:47.494,95362,204687,185123,-13695,-4.193066625,-74,-0.02265695
2023-10-26 13:47:47.494,95363,204684,185117,58213,17.823365275,-1356,-0.4151733
2023-10-26 13:47:47.494,95364,204682,185115,10453,3.200447275,-1838,-0.56274965
2023-10-26 13:47:47.494,95365,204691,185137,-62345,-19.088480375,-840,-0.257187
2023-10-26 13:47:47.524,95366,204718,185123,-14159,-4.335131825,-577,-0.176662975
2023-10-26 13:47:47.524,95367,204713,185126,58119,17.794584825,-1694,-0.51866045
2023-10-26 13:47:47.524,95368,204700,185121,10747,3.290462725,-1965,-0.601633875
2023-10-26 13:47:47.524,95369,204738,185130,-62150,-19.02877625,-737,-0.225650975
2023-10-26 13:47:47.524,95370,204723,185106,-14336,-4.3893248,-270,-0.08266725
2023-10-26 13:47:47.524,95371,204739,185137,58569,17.932363575,-1269,-0.388536075
2023-10-26 13:47:47.524,95372,204735,185110,12812,3.9227141,-1491,-0.456506925
2023-10-26 13:47:47.524,95373,204766,185120,-61678,-18.88426165,-201,-0.061541175
2023-10-26 13:47:47.524,95374,204777,185128,-16445,-5.035047875,374,0.11450945
2023-10-26 13:47:47.524,95375,204786,185123,56619,17.335322325,-530,-0.16227275
2023-10-26 13:47:47.554,95376,204808,185127,12149,3.719720075,-727,-0.222589225
2023-10-26 13:47:47.554,95377,204815,185143,-62298,-19.07409015,508,0.1555369
2023-10-26 13:47:47.554,95378,204826,185156,-18001,-5.511456175,927,0.283824225
2023-10-26 13:47:47.554,95379,204808,185133,55838,17.09619965,-262,-0.08021785
2023-10-26 13:47:47.554,95380,204837,185149,12430,3.80575525,-818,-0.25045115
2023-10-26 13:47:47.554,95381,204863,185181,-61715,-18.895590125,96,0.0293928
2023-10-26 13:47:47.554,95382,204872,185167,-17417,-5.332649975,287,0.087872225
2023-10-26 13:47:47.554,95383,204913,185194,56726,17.36808305,-1070,-0.32760725
2023-10-26 13:47:47.554,95384,204905,185181,15130,4.63242775,-1762,-0.53948035
2023-10-26 13:47:47.554,95385,204918,185203,-61035,-18.687391125,-911,-0.278925425
2023-10-26 13:47:47.584,95386,204934,185197,-19781,-6.056447675,-664,-0.2033002
2023-10-26 13:47:47.584,95387,204935,185210,55625,17.030984375,-1872,-0.5731596
2023-10-26 13:47:47.584,95388,204938,185224,16152,4.9453386,-2379,-0.728390325
2023-10-26 13:47:47.584,95389,204955,185207,-61441,-18.811698175,-1331,-0.407518925
2023-10-26 13:47:47.584,95390,204954,185215,-20804,-6.3696647,-919,-0.281374825
2023-10-26 13:47:47.584,95391,204949,185209,55557,17.010164475,-2072,-0.6343946
2023-10-26 13:47:47.584,95392,204955,185204,15398,4.71448265,-2627,-0.804321725
2023-10-26 13:47:47.584,95393,204922,185204,-61388,-18.7954709,-1625,-0.497534375
2023-10-26 13:47:47.584,95394,204912,185181,-20136,-6.1651398,-1190,-0.36434825
2023-10-26 13:47:47.584,95395,204918,185192,56303,17.238571025,-2274,-0.69624195
2023-10-26 13:47:47.584,95396,204879,185184,17955,5.497372125,-2775,-0.849635625
2023-10-26 13:47:47.620,95397,204888,185185,-60136,-18.4121398,-1777,-0.544072975
2023-10-26 13:47:47.620,95398,204867,185161,-21642,-6.62623935,-1411,-0.432012925
2023-10-26 13:47:47.620,95399,204845,185150,54684,16.7428737,-2617,-0.801259975
2023-10-26 13:47:47.620,95400,204829,185129,18400,5.63362,-3244,-0.9932317
2023-10-26 13:47:47.620,95401,204814,185144,-60883,-18.640852525,-2269,-0.694711075
2023-10-26 13:47:47.620,95402,204774,185104,-23981,-7.342382675,-1790,-0.54805325
2023-10-26 13:47:47.620,95403,204766,185107,54790,16.77532825,-2831,-0.866781425
2023-10-26 13:47:47.620,95404,204742,185102,21258,6.50866815,-3313,-1.014357775
2023-10-26 13:47:47.620,95405,204715,185072,-58890,-18.03064575,-2223,-0.680627025
2023-10-26 13:47:47.620,95406,204675,185055,-23702,-7.25695985,-1669,-0.511006075
2023-10-26 13:47:47.620,95407,204659,185057,54597,16.716236475,-2689,-0.823304575
2023-10-26 13:47:47.651,95408,204660,185034,21360,6.539898,-3190,-0.97669825
2023-10-26 13:47:47.651,95409,204638,185028,-59856,-18.3264108,-2138,-0.65460215
2023-10-26 13:47:47.651,95410,204638,185031,-24966,-7.64396505,-1616,-0.4947788
2023-10-26 13:47:47.651,95411,204670,185075,53863,16.491504025,-2664,-0.8156502
2023-10-26 13:47:47.651,95412,204665,185051,21594,6.61154295,-3209,-0.982515575
2023-10-26 13:47:47.651,95413,204676,185074,-59449,-18.201797575,-2175,-0.665930625
2023-10-26 13:47:47.651,95414,204678,185064,-26476,-8.1062893,-1612,-0.4935541
2023-10-26 13:47:47.651,95415,204694,185076,51845,15.873642875,-2623,-0.803097025
2023-10-26 13:47:47.651,95416,204729,185072,21266,6.51111755,-3174,-0.97179945
2023-10-26 13:47:47.677,95417,204732,185070,-60133,-18.411221275,-2133,-0.653071275
2023-10-26 13:47:47.677,95418,204729,185085,-27545,-8.433590375,-1542,-0.47212185
2023-10-26 13:47:47.677,95419,204753,185087,53203,16.289428525,-2550,-0.78074625
2023-10-26 13:47:47.677,95420,204766,185093,24465,7.490571375,-3104,-0.9503672
2023-10-26 13:47:47.677,95421,204783,185098,-58780,-17.9969665,-2038,-0.62398465
2023-10-26 13:47:47.677,95422,204774,185099,-27572,-8.4418571,-1406,-0.43048205
2023-10-26 13:47:47.677,95423,204817,185113,52529,16.083066575,-2399,-0.734513825
2023-10-26 13:47:47.712,95424,204799,185114,23522,7.20184835,-2981,-0.912707675
2023-10-26 13:47:47.712,95425,204824,185086,-59792,-18.3068156,-1947,-0.596122725
2023-10-26 13:47:47.712,95426,204832,185110,-30036,-9.1962723,-1314,-0.40231395
2023-10-26 13:47:47.712,95427,204839,185110,51875,15.882828125,-2298,-0.70359015
2023-10-26 13:47:47.712,95428,204862,185097,26884,8.2312087,-2910,-0.89096925
2023-10-26 13:47:47.742,95429,204857,185116,-55689,-17.050579575,-1918,-0.58724365
2023-10-26 13:47:47.742,95430,204888,185090,-27897,-8.541363975,-1295,-0.396496625
2023-10-26 13:47:47.742,95431,204879,185114,52883,16.191452525,-2303,-0.705121025
2023-10-26 13:47:47.742,95432,204884,185078,26542,8.12649685,-2999,-0.918218825
2023-10-26 13:47:47.742,95433,204894,185092,-57665,-17.655581375,-2116,-0.6478663
2023-10-26 13:47:47.742,95434,204895,185077,-30223,-9.253527025,-1591,-0.487124425
2023-10-26 13:47:47.742,95435,204929,185096,50858,15.57144815,-2696,-0.8254478
2023-10-26 13:47:47.742,95436,204908,185084,28229,8.643014075,-3473,-1.063345775
2023-10-26 13:47:47.779,95437,204919,185100,-55993,-17.143656775,-2608,-0.7985044
2023-10-26 13:47:47.779,95438,204923,185101,-31532,-9.6543101,-2037,-0.623678475
2023-10-26 13:47:47.779,95439,204945,185089,50376,15.4238718,-3055,-0.935364625
2023-10-26 13:47:47.779,95440,204980,185119,29547,9.046552725,-3722,-1.13958335
2023-10-26 13:47:47.779,95441,204989,185121,-54738,-16.75940715,-2736,-0.8376948
2023-10-26 13:47:47.779,95442,204991,185096,-30329,-9.285981575,-2038,-0.62398465
2023-10-26 13:47:47.779,95443,205017,185116,51446,15.75147905,-2978,-0.91178915
2023-10-26 13:47:47.779,95444,205050,185129,31160,9.540413,-3639,-1.114170825
2023-10-26 13:47:47.809,95445,205050,185133,-55855,-17.101404625,-2642,-0.80891435
2023-10-26 13:47:47.809,95446,205086,185141,-32543,-9.963853025,-1872,-0.5731596
2023-10-26 13:47:47.809,95447,205068,185149,51153,15.661769775,-2714,-0.83095895
2023-10-26 13:47:47.809,95448,205071,185129,32330,9.89863775,-3292,-1.0079281
2023-10-26 13:47:47.809,95449,205109,185153,-55198,-16.90024765,-2222,-0.68032085
2023-10-26 13:47:47.809,95450,205098,185159,-34742,-10.63713185,-1395,-0.427114125
2023-10-26 13:47:47.840,95451,205115,185152,49440,15.137292,-2233,-0.683688775
2023-10-26 13:47:47.840,95452,205106,185135,34626,10.60161555,-2876,-0.8805593
2023-10-26 13:47:47.840,95453,205118,185163,-51559,-15.786076825,-1884,-0.5768337
2023-10-26 13:47:47.911,95454,205151,185148,-32068,-9.8184199,-1103,-0.337711025
2023-10-26 13:47:47.911,95455,205152,185151,50459,15.449284325,-1991,-0.609594425
2023-10-26 13:47:47.911,95456,205174,185155,34673,10.616005775,-2714,-0.83095895
2023-10-26 13:47:47.911,95457,205200,185159,-52841,-16.178593175,-1789,-0.547747075
2023-10-26 13:47:47.911,95458,205184,185168,-34713,-10.628252775,-1016,-0.3110738
2023-10-26 13:47:47.911,95459,205185,185176,48697,14.909803975,-1872,-0.5731596
2023-10-26 13:47:47.911,95460,205205,185169,35729,10.939326575,-2558,-0.78319565
2023-10-26 13:47:47.911,95461,205223,185174,-51021,-15.621354675,-1606,-0.49171705
2023-10-26 13:47:47.952,95462,205233,185172,-34311,-10.505170425,-835,-0.255656125
2023-10-26 13:47:47.952,95463,205244,185204,49060,15.0209455,-1719,-0.526314825
2023-10-26 13:47:47.952,95464,205261,185182,36146,11.06700155,-2427,-0.743086725
2023-10-26 13:47:47.952,95465,205264,185201,-52353,-16.029179775,-1428,-0.4372179
2023-10-26 13:47:47.952,95466,205283,185207,-37501,-11.481868675,-534,-0.16349745
2023-10-26 13:47:47.952,95467,205286,185206,46809,14.331745575,-1329,-0.406906575
2023-10-26 13:47:47.952,95468,205329,185191,35589,10.896462075,-2067,-0.632863725
2023-10-26 13:47:47.952,95469,205311,185215,-52305,-16.014483375,-1166,-0.35700005
2023-10-26 13:47:47.978,95470,205316,185209,-37761,-11.561474175,-351,-0.107467425
2023-10-26 13:47:47.979,95471,205332,185203,46366,14.19611005,-1182,-0.36189885
2023-10-26 13:47:47.979,95472,205330,185212,37007,11.330618225,-1912,-0.5854066
2023-10-26 13:47:47.979,95473,205367,185221,-50768,-15.5438924,-940,-0.2878045
2023-10-26 13:47:47.979,95474,205349,185212,-38603,-11.819273525,-6,-0.00183705
2023-10-26 13:47:47.979,95475,205361,185221,44987,13.773894725,-761,-0.232999175
2023-10-26 13:47:48.008,95476,205375,185210,37267,11.410223725,-1502,-0.45987485
2023-10-26 13:47:48.008,95477,205376,185219,-50785,-15.549097375,-571,-0.174825925
2023-10-26 13:47:48.008,95478,205402,185236,-39376,-12.0559468,367,0.112366225
2023-10-26 13:47:48.008,95479,205422,185251,44850,13.73194875,-355,-0.108692125
2023-10-26 13:47:48.008,95480,205439,185241,36611,11.209372925,-1116,-0.3416913
2023-10-26 13:47:48.046,95481,205435,185254,-51618,-15.80414115,-277,-0.084810475
2023-10-26 13:47:48.046,95482,205449,185246,-41829,-12.806994075,514,0.15737395
2023-10-26 13:47:48.046,95483,205440,185240,42818,13.10980115,-388,-0.1187959
2023-10-26 13:47:48.046,95484,205466,185261,38373,11.748853275,-1325,-0.405681875
2023-10-26 13:47:48.046,95485,205469,185246,-50282,-15.39509135,-625,-0.191359375
2023-10-26 13:47:48.046,95486,205470,185223,-43286,-13.25309105,78,0.02388165
2023-10-26 13:47:48.066,95487,205446,185226,41610,12.73994175,-897,-0.274638975
2023-10-26 13:47:48.066,95488,205445,185224,38908,11.9126569,-1924,-0.5890807
2023-10-26 13:47:48.066,95489,205408,185217,-49455,-15.141884625,-1279,-0.391597825
2023-10-26 13:47:48.066,95490,205390,185187,-41645,-12.750657875,-541,-0.165640675
2023-10-26 13:47:48.066,95491,205333,185176,43731,13.389338925,-1431,-0.438136425
2023-10-26 13:47:48.066,95492,205279,185143,41593,12.734736775,-2382,-0.72930885
2023-10-26 13:47:48.096,95493,205208,185127,-47627,-14.582196725,-1666,-0.51008755
2023-10-26 13:47:48.096,95494,205155,185100,-41335,-12.655743625,-858,-0.26269815
2023-10-26 13:47:48.096,95495,205086,185087,44216,13.5378338,-1706,-0.52233455
2023-10-26 13:47:48.096,95496,205014,185051,42739,13.085613325,-2652,-0.8119761
2023-10-26 13:47:48.126,95497,204914,185036,-46944,-14.3730792,-1943,-0.594898025
2023-10-26 13:47:48.126,95498,204803,184981,-43578,-13.34249415,-1122,-0.34352835
2023-10-26 13:47:48.126,95499,204718,184939,41574,12.72891945,-1957,-0.599184475
2023-10-26 13:47:48.166,95500,204611,184898,42296,12.9499778,-2927,-0.896174225
2023-10-26 13:47:48.166,95501,204504,184860,-46479,-14.230707825,-2258,-0.69134315
2023-10-26 13:47:48.166,95502,204386,184821,-43950,-13.45639125,-1475,-0.451608125
2023-10-26 13:47:48.166,95503,204247,184784,42008,12.8617994,-2385,-0.730227375
2023-10-26 13:47:48.166,95504,204167,184732,45079,13.802062825,-3474,-1.06365195
2023-10-26 13:47:48.166,95505,204050,184698,-44324,-13.5709007,-2897,-0.886988975
2023-10-26 13:47:48.166,95506,203977,184654,-43883,-13.435877525,-2108,-0.6454169
2023-10-26 13:47:48.166,95507,203869,184628,41120,12.589916,-2901,-0.888213675
2023-10-26 13:47:48.166,95508,203805,184589,45154,13.82502595,-3783,-1.158260025
2023-10-26 13:47:48.196,95509,203727,184559,-45759,-14.010261825,-2940,-0.9001545
2023-10-26 13:47:48.196,95510,203670,184533,-48463,-14.838159025,-1860,-0.5694855
2023-10-26 13:47:48.196,95511,203591,184517,36860,11.2856105,-2399,-0.734513825
2023-10-26 13:47:48.196,95512,203547,184495,44134,13.51272745,-3120,-0.955266
2023-10-26 13:47:48.196,95513,203480,184489,-45443,-13.913510525,-2170,-0.66439975
2023-10-26 13:47:48.196,95514,203481,184475,-47905,-14.667313375,-982,-0.30066385
2023-10-26 13:47:48.196,95515,203435,184460,38165,11.685168875,-1451,-0.444259925
2023-10-26 13:47:48.196,95516,203402,184441,45477,13.923920475,-2195,-0.672054125
2023-10-26 13:47:48.196,95517,203381,184451,-44053,-13.487927275,-1346,-0.41211155
2023-10-26 13:47:48.196,95518,203360,184433,-47832,-14.6449626,-304,-0.0930772
2023-10-26 13:47:48.196,95519,203354,184431,36608,11.2084544,-959,-0.293621825
2023-10-26 13:47:48.226,95520,203347,184410,45063,13.797164025,-1900,-0.5817325
2023-10-26 13:47:48.226,95521,203327,184418,-44283,-13.558347525,-1187,-0.363429725
2023-10-26 13:47:48.226,95522,203329,184402,-49804,-15.2487397,-198,-0.06062265
2023-10-26 13:47:48.226,95523,203322,184399,35091,10.743986925,-879,-0.269127825
2023-10-26 13:47:48.226,95524,203333,184402,46190,14.14222325,-1864,-0.5707102
2023-10-26 13:47:48.226,95525,203329,184385,-42783,-13.099085025,-1189,-0.364042075
2023-10-26 13:47:48.226,95526,203315,184388,-49944,-15.2916042,-205,-0.062765875
2023-10-26 13:47:48.226,95527,203327,184383,33794,10.34687795,-907,-0.277700725
2023-10-26 13:47:48.256,95528,203327,184396,46369,14.197028575,-1986,-0.60806355
2023-10-26 13:47:48.256,95529,203303,184393,-41894,-12.82689545,-1451,-0.444259925
2023-10-26 13:47:48.256,95530,203324,184390,-51782,-15.85435385,-601,-0.184011175
2023-10-26 13:47:48.256,95531,203340,184388,32145,9.841995375,-1424,-0.4359932
2023-10-26 13:47:48.286,95532,203358,184395,45408,13.9027944,-2628,-0.8046279
2023-10-26 13:47:48.286,95533,203386,184414,-44374,-13.58620945,-2196,-0.6723603
2023-10-26 13:47:48.286,95534,203400,184427,-53473,-16.372095775,-1368,-0.4188474
2023-10-26 13:47:48.286,95535,203423,184420,30446,9.32180405,-2146,-0.65705155
2023-10-26 13:47:48.286,95536,203441,184440,46611,14.271122925,-3300,-1.0103775
2023-10-26 13:47:48.286,95537,203465,184449,-41066,-12.57338255,-2805,-0.858820875
2023-10-26 13:47:48.316,95538,203484,184461,-51372,-15.7288221,-1863,-0.570404025
2023-10-26 13:47:48.316,95539,203496,184470,32322,9.89618835,-2513,-0.769417775
2023-10-26 13:47:48.316,95540,203499,184452,47475,14.535658125,-3574,-1.09426945
2023-10-26 13:47:48.316,95541,203525,184476,-40633,-12.440808775,-2996,-0.9173003
2023-10-26 13:47:48.316,95542,203538,184447,-52616,-16.1097038,-1956,-0.5988783
2023-10-26 13:47:48.316,95543,203511,184467,30526,9.34629805,-2527,-0.773704225
2023-10-26 13:47:48.345,95544,203522,184469,47952,14.6817036,-3574,-1.09426945
2023-10-26 13:47:48.345,95545,203516,184441,-40672,-12.4527496,-3042,-0.93138435
2023-10-26 13:47:48.345,95546,203488,184424,-54470,-16.67735225,-2076,-0.6356193
2023-10-26 13:47:48.345,95547,203475,184431,28527,8.734254225,-2752,-0.8425936
2023-10-26 13:47:48.345,95548,203483,184421,47074,14.41288195,-3935,-1.204798625
2023-10-26 13:47:48.375,95549,203434,184400,-40411,-12.372837925,-3531,-1.081103925
2023-10-26 13:47:48.375,95550,203436,184399,-55285,-16.926884875,-2642,-0.80891435
2023-10-26 13:47:48.375,95551,203405,184387,27177,8.320917975,-3348,-1.0250739
2023-10-26 13:47:48.375,95552,203396,184396,48600,14.880105,-4562,-1.39677035
2023-10-26 13:47:48.375,95553,203386,184375,-38731,-11.858463925,-4184,-1.2810362
2023-10-26 13:47:48.375,95554,203369,184361,-55858,-17.10232315,-3268,-1.0005799
2023-10-26 13:47:48.415,95555,203328,184352,26396,8.0817953,-3894,-1.19224545
2023-10-26 13:47:48.415,95556,203332,184343,49344,15.1078992,-5018,-1.53638615
2023-10-26 13:47:48.415,95557,203269,184311,-38339,-11.738443325,-4552,-1.3937086
2023-10-26 13:47:48.415,95558,203257,184304,-56756,-17.3772683,-3506,-1.07344955
2023-10-26 13:47:48.415,95559,203212,184302,26698,8.17426015,-3971,-1.215820925
2023-10-26 13:47:48.415,95560,203206,184283,51027,15.623191725,-4934,-1.51066745
2023-10-26 13:47:48.445,95561,203158,184251,-35307,-10.810120725,-4301,-1.316858675
2023-10-26 13:47:48.445,95562,203139,184251,-54448,-16.6706164,-3114,-0.95342895
2023-10-26 13:47:48.445,95563,203113,184235,26847,8.219880225,-3528,-1.0801854
2023-10-26 13:47:48.445,95564,203098,184229,51337,15.718105975,-4570,-1.39921975
2023-10-26 13:47:48.445,95565,203041,184200,-35265,-10.797261375,-4114,-1.25960395
2023-10-26 13:47:48.475,95566,203047,184195,-57636,-17.6467023,-3120,-0.955266
2023-10-26 13:47:48.475,95567,203000,184182,24355,7.456892125,-3717,-1.138052475
2023-10-26 13:47:48.475,95568,202997,184155,51208,15.6786094,-4935,-1.510973625
2023-10-26 13:47:48.475,95569,202980,184168,-35070,-10.73755725,-4611,-1.411772925
2023-10-26 13:47:48.595,95570,202998,184160,-58267,-17.839898725,-3684,-1.1279487
2023-10-26 13:47:48.595,95571,202973,184156,23322,7.14061335,-4312,-1.3202266
2023-10-26 13:47:48.595,95572,202975,184145,51495,15.766481625,-5549,-1.698965075
2023-10-26 13:47:48.595,95573,202976,184157,-33772,-10.3401421,-5188,-1.5884359
2023-10-26 13:47:48.635,95574,202998,184159,-58252,-17.8353061,-4128,-1.2638904
2023-10-26 13:47:48.635,95575,203003,184156,23000,7.042025,-4567,-1.398301225
2023-10-26 13:47:48.635,95576,203004,184160,53121,16.264322175,-5623,-1.721622025
2023-10-26 13:47:48.665,95577,203005,184161,-32398,-9.91945765,-5111,-1.564860425
2023-10-26 13:47:48.665,95578,203011,184174,-59203,-18.126478525,-3900,-1.1940825
2023-10-26 13:47:48.695,95579,203026,184172,20569,6.297713575,-4181,-1.280117675
2023-10-26 13:47:48.695,95580,203042,184190,52364,16.0325477,-5124,-1.5688407
2023-10-26 13:47:48.725,95581,203051,184195,-31781,-9.730547675,-4539,-1.389728325
2023-10-26 13:47:48.725,95582,203113,184208,-58326,-17.85796305,-3257,-0.997211975
2023-10-26 13:47:48.725,95583,203125,184218,21670,6.63481225,-3513,-1.075592775
2023-10-26 13:47:48.755,95584,203144,184221,53985,16.528857375,-4523,-1.384829525
2023-10-26 13:47:48.755,95585,203170,184249,-30595,-9.367424125,-4062,-1.24368285
2023-10-26 13:47:48.755,95586,203199,184265,-58745,-17.986250375,-2916,-0.8928063
2023-10-26 13:47:48.755,95587,203220,184280,21184,6.4860112,-3325,-1.018031875
2023-10-26 13:47:48.755,95588,203248,184280,54496,16.6853128,-4514,-1.38207395
2023-10-26 13:47:48.755,95589,203255,184287,-29551,-9.047777425,-4229,-1.294814075
2023-10-26 13:47:48.755,95590,203293,184297,-59593,-18.245886775,-3208,-0.9822094
2023-10-26 13:47:48.755,95591,203278,184300,18249,5.587387575,-3681,-1.127030175
2023-10-26 13:47:48.755,95592,203327,184315,53944,16.5163042,-4908,-1.5027069
2023-10-26 13:47:48.755,95593,203335,184321,-27367,-8.379091225,-4626,-1.41636555
2023-10-26 13:47:48.755,95594,203339,184324,-58185,-17.814792375,-3541,-1.084165675
2023-10-26 13:47:48.755,95595,203362,184330,20495,6.275056625,-3928,-1.2026554
2023-10-26 13:47:48.755,95596,203374,184327,55991,17.143044425,-5106,-1.56332955
2023-10-26 13:47:48.755,95597,203404,184338,-27850,-8.52697375,-4785,-1.465047375
2023-10-26 13:47:48.785,95598,203416,184357,-60778,-18.60870415,-3612,-1.1059041
2023-10-26 13:47:48.785,95599,203432,184356,17038,5.21660965,-3867,-1.183978725
2023-10-26 13:47:48.785,95600,203464,184351,53680,16.435474,-4929,-1.509136575
2023-10-26 13:47:48.785,95601,203473,184350,-28228,-8.6427079,-4550,-1.39309625
2023-10-26 13:47:48.785,95602,203474,184374,-61803,-18.922533525,-3361,-1.029054175
2023-10-26 13:47:48.785,95603,203516,184383,14365,4.398203875,-3625,-1.109884375
2023-10-26 13:47:48.785,95604,203511,184398,52897,16.195738975,-4721,-1.445452175
2023-10-26 13:47:48.785,95605,203529,184391,-27588,-8.4467559,-4359,-1.334616825
2023-10-26 13:47:48.785,95606,203560,184406,-62249,-19.059087575,-3124,-0.9564907
2023-10-26 13:47:48.785,95607,203567,184398,14970,4.58343975,-3319,-1.016194825
2023-10-26 13:47:48.785,95608,203585,184411,55773,17.076298275,-4412,-1.3508441
2023-10-26 13:47:48.785,95609,203608,184404,-23672,-7.2477746,-4112,-1.2589916
2023-10-26 13:47:48.785,95610,203609,184403,-59499,-18.217106325,-2933,-0.898011275
2023-10-26 13:47:48.785,95611,203613,184392,17379,5.321015325,-3143,-0.962308025
2023-10-26 13:47:48.785,95612,203637,184392,58294,17.84816545,-4205,-1.287465875
2023-10-26 13:47:48.785,95613,203652,184413,-21885,-6.700639875,-3842,-1.17632435
2023-10-26 13:47:48.785,95614,203667,184430,-61299,-18.768221325,-2611,-0.799422925
2023-10-26 13:47:48.815,95615,203673,184412,14008,4.2888994,-2839,-0.869230825
2023-10-26 13:47:48.815,95616,203689,184439,57347,17.558217725,-4024,-1.2320482
2023-10-26 13:47:48.815,95617,203706,184433,-22916,-7.0163063,-3848,-1.1781614
2023-10-26 13:47:48.815,95618,203718,184439,-66034,-20.21795995,-2769,-0.847798575
2023-10-26 13:47:48.815,95619,203731,184454,6585,2.016162375,-3086,-0.94485605
2023-10-26 13:47:48.815,95620,203739,184446,52889,16.193289575,-4372,-1.3385971
2023-10-26 13:47:48.815,95621,203729,184442,-24507,-7.503430725,-4346,-1.33063655
2023-10-26 13:47:48.815,95622,203765,184442,-66509,-20.363393075,-3431,-1.050486425
2023-10-26 13:47:48.815,95623,203791,184448,6937,2.123935975,-3908,-1.1965319
2023-10-26 13:47:48.815,95624,203781,184453,52966,16.21686505,-5313,-1.626707775
2023-10-26 13:47:48.815,95625,203806,184454,-25148,-7.6996889,-5283,-1.617522525
2023-10-26 13:47:48.815,95626,203814,184469,-66870,-20.47392225,-4200,-1.285935
2023-10-26 13:47:48.815,95627,203823,184454,6828,2.0905629,-4384,-1.3422712
2023-10-26 13:47:48.845,95628,203845,184470,54198,16.59407265,-5446,-1.66742905
2023-10-26 13:47:48.845,95629,203851,184472,-21938,-6.71686715,-5061,-1.549551675
2023-10-26 13:47:48.845,95630,203864,184479,-66872,-20.4745346,-3610,-1.10529175
2023-10-26 13:47:48.845,95631,203883,184468,4623,1.415447025,-3453,-1.057222275
2023-10-26 13:47:48.845,95632,203874,184485,54059,16.551514325,-4272,-1.3079796
2023-10-26 13:47:48.845,95633,203881,184482,-21195,-6.489379125,-3769,-1.153973575
2023-10-26 13:47:48.845,95634,203908,184492,-66761,-20.440549175,-2337,-0.715530975
2023-10-26 13:47:48.845,95635,203886,184458,5654,1.73111345,-2413,-0.738800275
2023-10-26 13:47:48.845,95636,203911,184484,54788,16.7747159,-3732,-1.1426451
2023-10-26 13:47:48.845,95637,203929,184484,-21795,-6.673084125,-3885,-1.189489875
2023-10-26 13:47:48.845,95638,203938,184501,-67365,-20.625478875,-3092,-0.9466931
2023-10-26 13:47:48.875,95639,203960,184510,3724,1.1401957,-3695,-1.131316625
2023-10-26 13:47:48.875,95640,203992,184542,53610,16.41404175,-5427,-1.661611725
2023-10-26 13:47:48.875,95641,203992,184522,-19786,-6.05797855,-5903,-1.807351025
2023-10-26 13:47:48.875,95642,204034,184535,-66838,-20.46412465,-5313,-1.626707775
2023-10-26 13:47:48.875,95643,204052,184546,2761,0.845349175,-5979,-1.830620325
2023-10-26 13:47:48.875,95644,204074,184564,55562,17.01169535,-7665,-2.346831375
2023-10-26 13:47:48.875,95645,204100,184551,-15966,-4.88839005,-7970,-2.44021475
2023-10-26 13:47:48.875,95646,204109,184573,-65948,-20.1916289,-7024,-2.1505732
2023-10-26 13:47:48.875,95647,204128,184559,2201,0.673891175,-7200,-2.20446
2023-10-26 13:47:48.875,95648,204129,184576,56550,17.31419625,-8411,-2.575237925
2023-10-26 13:47:48.875,95649,204125,184570,-14373,-4.400653275,-8338,-2.55288715
2023-10-26 13:47:48.875,95650,204152,184589,-65621,-20.091509675,-7111,-2.177210425
2023-10-26 13:47:48.915,95651,204143,184577,942,0.28841685,-7084,-2.1689437
2023-10-26 13:47:48.915,95652,204160,184575,55306,16.93331455,-8140,-2.4922645
2023-10-26 13:47:48.915,95653,204133,184553,-15750,-4.82225625,-7951,-2.434397425
2023-10-26 13:47:48.915,95654,204109,184543,-67852,-20.7745861,-6673,-2.043105775
2023-10-26 13:47:48.915,95655,204051,184524,-412,-0.1261441,-6682,-2.04586135
2023-10-26 13:47:48.915,95656,203981,184480,54979,16.833195325,-7879,-2.412352825
2023-10-26 13:47:48.915,95657,203919,184453,-15560,-4.764083,-7890,-2.41572075
2023-10-26 13:47:48.915,95658,203843,184422,-67866,-20.77887255,-6737,-2.062700975
2023-10-26 13:47:48.915,95659,203734,184378,51,0.015614925,-6753,-2.067599775
2023-10-26 13:47:48.915,95660,203616,184324,56552,17.3148086,-7922,-2.42551835
2023-10-26 13:47:48.915,95661,203505,184296,-13551,-4.148977425,-7888,-2.4151084
2023-10-26 13:47:48.915,95662,203379,184256,-68862,-21.08382285,-6651,-2.036369925
2023-10-26 13:47:48.915,95663,203277,184212,-3328,-1.0189504,-6586,-2.01646855
2023-10-26 13:47:48.915,95664,203167,184152,55919,17.120999825,-7694,-2.35571045
2023-10-26 13:47:48.915,95665,203016,184107,-13563,-4.152651525,-7569,-2.317438575
2023-10-26 13:47:48.945,95666,202917,184071,-69041,-21.138628175,-6182,-1.89277385
2023-10-26 13:47:48.945,95667,202808,184028,-3868,-1.1842849,-5943,-1.819598025
2023-10-26 13:47:48.945,95668,202716,184002,55788,17.0808909,-6939,-2.124548325
2023-10-26 13:47:48.945,95669,202599,183968,-11374,-3.48243445,-6826,-2.08995055
2023-10-26 13:47:48.945,95670,202521,183940,-68408,-20.9448194,-5541,-1.696515675
2023-10-26 13:47:48.945,95671,202422,183929,-4503,-1.378706025,-5439,-1.665285825
2023-10-26 13:47:48.945,95672,202369,183883,54842,16.79124935,-6610,-2.02381675
2023-10-26 13:47:48.945,95673,202284,183873,-10495,-3.213306625,-6714,-2.05565895
2023-10-26 13:47:48.945,95674,202226,183840,-68565,-20.992888875,-5637,-1.725908475
2023-10-26 13:47:48.945,95675,202158,183811,-6350,-1.94421125,-5701,-1.745503675
2023-10-26 13:47:48.945,95676,202100,183798,54782,16.77287885,-7010,-2.14628675
2023-10-26 13:47:48.945,95677,202052,183775,-10826,-3.31465055,-7217,-2.209664975
2023-10-26 13:47:48.975,95678,201993,183748,-69584,-21.3048812,-6172,-1.8897121
2023-10-26 13:47:48.975,95679,201980,183743,-7539,-2.308253325,-6214,-1.90257145
2023-10-26 13:47:48.975,95680,201956,183717,55605,17.024860875,-7492,-2.2938631
2023-10-26 13:47:48.975,95681,201893,183689,-6465,-1.979421375,-7640,-2.339177
2023-10-26 13:47:48.975,95682,201878,183688,-67266,-20.59516755,-6498,-1.98952515
2023-10-26 13:47:48.975,95683,201863,183680,-6654,-2.03728845,-6446,-1.97360405
2023-10-26 13:47:48.975,95684,201859,183688,56609,17.332260575,-7680,-2.351424
2023-10-26 13:47:48.975,95685,201846,183673,-7423,-2.272737025,-7821,-2.394594675
2023-10-26 13:47:48.975,95686,201843,183678,-70102,-21.46347985,-6650,-2.03606375
2023-10-26 13:47:49.005,95687,201858,183677,-9632,-2.9490776,-6549,-2.005140075
2023-10-26 13:47:49.005,95688,201882,183696,56254,17.22356845,-7769,-2.378673575
2023-10-26 13:47:49.005,95689,201882,183689,-4824,-1.4769882,-7945,-2.432560375
2023-10-26 13:47:49.005,95690,201908,183696,-68308,-20.9142019,-6784,-2.0770912
2023-10-26 13:47:49.005,95691,201916,183695,-9924,-3.0384807,-6649,-2.035757575
2023-10-26 13:47:49.035,95692,201937,183719,54549,16.701540075,-7860,-2.4065355
2023-10-26 13:47:49.035,95693,201926,183706,-6348,-1.9435989,-8062,-2.46838285
2023-10-26 13:47:49.035,95694,201963,183729,-69324,-21.2252757,-6931,-2.122098925
2023-10-26 13:47:49.035,95695,201972,183721,-11812,-3.6165391,-6807,-2.084133225
2023-10-26 13:47:49.035,95696,201977,183734,53611,16.414347925,-8025,-2.457054375
2023-10-26 13:47:49.035,95697,201990,183742,-5258,-1.60986815,-8225,-2.518289375
2023-10-26 13:47:49.035,95698,202042,183767,-69635,-21.320496125,-7037,-2.154553475
2023-10-26 13:47:49.035,95699,202069,183762,-12692,-3.8859731,-6808,-2.0844394
2023-10-26 13:47:49.035,95700,202116,183778,55001,16.839931175,-7919,-2.424599825
2023-10-26 13:47:49.035,95701,202110,183798,-2671,-0.817793425,-8042,-2.46225935
2023-10-26 13:47:49.065,95702,202164,183794,-68367,-20.932266225,-6800,-2.08199
2023-10-26 13:47:49.065,95703,202180,183803,-11687,-3.578267225,-6535,-2.000853625
2023-10-26 13:47:49.065,95704,202197,183828,56686,17.35583605,-7643,-2.340095525
2023-10-26 13:47:49.065,95705,202204,183819,-565,-0.172988875,-7767,-2.378061225
2023-10-26 13:47:49.065,95706,202203,183836,-67744,-20.7415192,-6486,-1.98585105
2023-10-26 13:47:49.065,95707,202222,183817,-13713,-4.198577775,-6165,-1.887568875
2023-10-26 13:47:49.065,95708,202223,183836,54862,16.79737285,-7294,-2.23324045
2023-10-26 13:47:49.095,95709,202223,183814,-1384,-0.4237462,-7567,-2.316826225
2023-10-26 13:47:49.095,95710,202218,183837,-68913,-21.099437775,-6487,-1.986157225
2023-10-26 13:47:49.095,95711,202187,183818,-15071,-4.614363425,-6337,-1.940230975
2023-10-26 13:47:49.095,95712,202226,183801,55155,16.887082125,-7614,-2.33121645
2023-10-26 13:47:49.095,95713,202205,183796,1297,0.397108975,-8011,-2.452767925
2023-10-26 13:47:49.125,95714,202216,183816,-67132,-20.5541401,-7003,-2.144143525
2023-10-26 13:47:49.125,95715,202183,183796,-13685,-4.190004875,-6892,-2.1101581
2023-10-26 13:47:49.125,95716,202160,183798,57883,17.722327525,-8209,-2.513390575
2023-10-26 13:47:49.125,95717,202168,183794,4591,1.405649425,-8620,-2.6392285
2023-10-26 13:47:49.125,95718,202160,183776,-66974,-20.50576445,-7532,-2.3061101
2023-10-26 13:47:49.165,95719,202110,183775,-15415,-4.719687625,-7232,-2.2142576
2023-10-26 13:47:49.165,95720,202115,183770,56949,17.436360075,-8301,-2.541558675
2023-10-26 13:47:49.165,95721,202089,183768,3766,1.15305505,-8471,-2.593608425
2023-10-26 13:47:49.165,95722,202097,183764,-67753,-20.744274775,-7192,-2.2020106
2023-10-26 13:47:49.195,95723,202040,183737,-16856,-5.1608858,-6763,-2.070661525
2023-10-26 13:47:49.195,95724,202034,183738,55211,16.904227925,-7771,-2.379285925
2023-10-26 13:47:49.195,95725,202027,183731,4210,1.28899675,-7925,-2.426436875
2023-10-26 13:47:49.255,95726,202034,183731,-68537,-20.984315975,-6612,-2.0244291
2023-10-26 13:47:49.255,95727,201990,183716,-21474,-6.57480195,-6136,-1.8786898
2023-10-26 13:47:49.255,95728,201995,183717,50930,15.59349275,-7176,-2.1971118
2023-10-26 13:47:49.285,95729,201982,183723,3514,1.07589895,-7466,-2.28590255
2023-10-26 13:47:49.285,95730,202007,183729,-68952,-21.1113786,-6328,-1.9374754
2023-10-26 13:47:49.285,95731,201985,183728,-22057,-6.753301975,-6007,-1.839193225
2023-10-26 13:47:49.285,95732,202012,183746,52461,16.062246675,-7153,-2.190069775
2023-10-26 13:47:49.285,95733,202003,183729,5810,1.77887675,-7454,-2.28222845
2023-10-26 13:47:49.285,95734,202012,183743,-67906,-20.79111955,-6198,-1.89767265
2023-10-26 13:47:49.285,95735,202039,183737,-22016,-6.7407488,-5681,-1.739380175
2023-10-26 13:47:49.285,95736,202044,183742,52615,16.109397625,-6643,-2.033920525
2023-10-26 13:47:49.315,95737,202040,183730,5770,1.76662975,-6829,-2.090869075
2023-10-26 13:47:49.315,95738,202064,183774,-67980,-20.8137765,-5517,-1.689167475
2023-10-26 13:47:49.315,95739,202079,183758,-21841,-6.687168175,-4979,-1.524445325
2023-10-26 13:47:49.315,95740,202124,183768,52696,16.1341978,-5979,-1.830620325
2023-10-26 13:47:49.315,95741,202133,183783,7687,2.353567225,-6280,-1.922779
2023-10-26 13:47:49.315,95742,202140,183797,-68053,-20.836127275,-5118,-1.56700365
2023-10-26 13:47:49.315,95743,202164,183788,-24676,-7.5551743,-4770,-1.46045475
2023-10-26 13:47:49.345,95744,202172,183804,50456,15.4483658,-6089,-1.864299575
2023-10-26 13:47:49.345,95745,202206,183804,6617,2.025959975,-6828,-2.0905629
2023-10-26 13:47:49.345,95746,202236,183824,-69629,-21.318659075,-6075,-1.860013125
2023-10-26 13:47:49.345,95747,202228,183819,-26621,-8.150684675,-6015,-1.841642625
2023-10-26 13:47:49.345,95748,202256,183829,49752,15.2328186,-7506,-2.29814955
2023-10-26 13:47:49.345,95749,202279,183829,8595,2.631574125,-8304,-2.5424772
2023-10-26 13:47:49.375,95750,202293,183848,-67500,-20.6668125,-7494,-2.29447545
2023-10-26 13:47:49.375,95751,202286,183840,-25852,-7.9152361,-7276,-2.2277293
2023-10-26 13:47:49.375,95752,202337,183871,51004,15.6161497,-8548,-2.6171839
2023-10-26 13:47:49.375,95753,202367,183865,10536,3.2258598,-9119,-2.792009825
2023-10-26 13:47:49.375,95754,202390,183890,-66910,-20.48616925,-8084,-2.4751187
2023-10-26 13:47:49.375,95755,202410,183878,-26732,-8.1846701,-7607,-2.329073225
2023-10-26 13:47:49.375,95756,202430,183904,50928,15.5928804,-8618,-2.63861615
2023-10-26 13:47:49.415,95757,202453,183904,11789,3.609497075,-8996,-2.7543503
2023-10-26 13:47:49.415,95758,202480,183917,-66685,-20.417279875,-7824,-2.3955132
2023-10-26 13:47:49.415,95759,202475,183903,-26773,-8.197223275,-7257,-2.221911975
2023-10-26 13:47:49.415,95760,202488,183901,51210,15.67922175,-8263,-2.529924025
2023-10-26 13:47:49.415,95761,202518,183915,12717,3.893627475,-8714,-2.66800895
2023-10-26 13:47:49.415,95762,202527,183937,-67207,-20.577103225,-7651,-2.342544925
2023-10-26 13:47:49.415,95763,202539,183921,-29592,-9.0603306,-7230,-2.21364525
2023-10-26 13:47:49.445,95764,202536,183939,49183,15.058605025,-8449,-2.586872575
2023-10-26 13:47:49.445,95765,202552,183918,12083,3.699512525,-9152,-2.8021136
2023-10-26 13:47:49.445,95766,202560,183952,-67289,-20.602209575,-8293,-2.539109275
2023-10-26 13:47:49.445,95767,202577,183932,-29784,-9.1191162,-7968,-2.4396024
2023-10-26 13:47:49.445,95768,202583,183937,50743,15.536238025,-9176,-2.8094618
2023-10-26 13:47:49.445,95769,202595,183939,16511,5.055255425,-9778,-2.99377915
2023-10-26 13:47:49.445,95770,202629,183940,-65688,-20.1120234,-8725,-2.671376875
2023-10-26 13:47:49.445,95771,202638,183945,-31286,-9.57899105,-8142,-2.49287685
2023-10-26 13:47:49.475,95772,202654,183960,49819,15.253332325,-9119,-2.792009825
2023-10-26 13:47:49.475,95773,202657,183963,15646,4.79041405,-9567,-2.929176225
2023-10-26 13:47:49.475,95774,202660,183979,-67075,-20.536688125,-8404,-2.5730947
2023-10-26 13:47:49.475,95775,202689,183980,-34402,-10.53303235,-7714,-2.36183395
2023-10-26 13:47:49.475,95776,202707,183992,46617,14.272959975,-8587,-2.629124725
2023-10-26 13:47:49.475,95777,202698,183991,16599,5.082198825,-8952,-2.7408786
2023-10-26 13:47:49.475,95778,202744,184007,-66334,-20.30981245,-7730,-2.36673275
2023-10-26 13:47:49.505,95779,202772,183995,-34777,-10.647847975,-7030,-2.15241025
2023-10-26 13:47:49.505,95780,202776,184007,47884,14.6608837,-8004,-2.4506247
2023-10-26 13:47:49.505,95781,202776,184008,18315,5.607595125,-8593,-2.630961775
2023-10-26 13:47:49.505,95782,202799,184030,-66062,-20.22653285,-7641,-2.339483175
2023-10-26 13:47:49.505,95783,202831,184030,-35855,-10.977904625,-7180,-2.1983365
2023-10-26 13:47:49.505,95784,202820,184032,45782,14.01730385,-8335,-2.551968625
2023-10-26 13:47:49.535,95785,202848,184037,16728,5.1216954,-9012,-2.7592491
2023-10-26 13:47:49.535,95786,202870,184058,-66896,-20.4818828,-8006,-2.45123705
2023-10-26 13:47:49.535,95787,202887,184056,-36138,-11.06455215,-7392,-2.2632456
2023-10-26 13:47:49.535,95788,202913,184070,45662,13.98056285,-8405,-2.573400875
2023-10-26 13:47:49.565,95789,202939,184063,18068,5.5319699,-8999,-2.755268825
2023-10-26 13:47:49.565,95790,202925,184070,-65720,-20.121821,-7947,-2.433172725
2023-10-26 13:47:49.565,95791,202958,184080,-35696,-10.9292228,-7311,-2.238445425
2023-10-26 13:47:49.565,95792,202963,184103,47379,14.506265325,-8367,-2.561766225
2023-10-26 13:47:49.565,95793,202987,184090,22289,6.824334575,-9082,-2.78068135
2023-10-26 13:47:49.565,95794,202989,184112,-63521,-19.448542175,-8151,-2.495632425
2023-10-26 13:47:49.565,95795,203025,184092,-36836,-11.2782623,-7583,-2.321725025
2023-10-26 13:47:49.595,95796,203020,184116,46353,14.192129775,-8691,-2.660966925
2023-10-26 13:47:49.595,95797,203014,184109,21681,6.638180175,-9471,-2.899783425
2023-10-26 13:47:49.595,95798,203045,184121,-64892,-19.8683081,-8579,-2.626675325
2023-10-26 13:47:49.595,95799,203061,184115,-38536,-11.7987598,-8006,-2.45123705
2023-10-26 13:47:49.595,95800,203083,184134,45624,13.9689282,-9123,-2.793234525
2023-10-26 13:47:49.595,95801,203078,184126,23256,7.1204058,-9964,-3.0507277
2023-10-26 13:47:49.625,95802,203109,184146,-62583,-19.161350025,-9148,-2.8008889
2023-10-26 13:47:49.625,95803,203135,184129,-37699,-11.542491325,-8582,-2.62759385
2023-10-26 13:47:49.625,95804,203150,184143,46926,14.36756805,-9614,-2.94356645
2023-10-26 13:47:49.665,95805,203139,184147,25862,7.91829785,-10341,-3.166155675
2023-10-26 13:47:49.665,95806,203149,184163,-61163,-18.726581525,-9405,-2.879575875
2023-10-26 13:47:49.665,95807,203163,184143,-38203,-11.696803525,-8720,-2.669846
2023-10-26 13:47:49.665,95808,203173,184154,46223,14.152327025,-9679,-2.963467825
2023-10-26 13:47:49.665,95809,203186,184165,26069,7.981676075,-10369,-3.174728575
2023-10-26 13:47:49.665,95810,203188,184157,-61834,-18.93202495,-9361,-2.866104175
2023-10-26 13:47:49.695,95811,203192,184152,-39984,-12.2421012,-8551,-2.618102425
2023-10-26 13:47:49.695,95812,203213,184159,45465,13.920246375,-9372,-2.8694721
2023-10-26 13:47:49.695,95813,203217,184147,27100,8.2973425,-9929,-3.040011575
2023-10-26 13:47:49.695,95814,203226,184163,-61056,-18.6938208,-8796,-2.6931153
2023-10-26 13:47:49.695,95815,203222,184154,-39668,-12.1453499,-7894,-2.41694545
2023-10-26 13:47:49.695,95816,203239,184158,45788,14.0191409,-8687,-2.659742225
2023-10-26 13:47:49.695,95817,203233,184147,28967,8.868971225,-9288,-2.8437534
2023-10-26 13:47:49.695,95818,203231,184167,-59763,-18.297936525,-8233,-2.520738775
2023-10-26 13:47:49.695,95819,203223,184149,-39996,-12.2457753,-7404,-2.2669197
2023-10-26 13:47:49.725,95820,203174,184143,45032,13.7876726,-8291,-2.538496925
2023-10-26 13:47:49.725,95821,203176,184127,28341,8.677305675,-9016,-2.7604738
2023-10-26 13:47:49.725,95822,203116,184097,-59178,-18.11882415,-8034,-2.45980995
2023-10-26 13:47:49.725,95823,203080,184095,-41133,-12.593896275,-7169,-2.194968575
2023-10-26 13:47:49.725,95824,202985,184066,44514,13.62907395,-7961,-2.437459175
2023-10-26 13:47:49.725,95825,202922,184029,30591,9.366199425,-8594,-2.63126795
2023-10-26 13:47:49.725,95826,202839,184003,-58170,-17.81019975,-7532,-2.3061101
2023-10-26 13:47:49.725,95827,202718,183961,-42515,-13.017030125,-6609,-2.023510575
2023-10-26 13:47:49.755,95828,202630,183929,43478,13.31187665,-7393,-2.263551775
2023-10-26 13:47:49.755,95829,202529,183894,30932,9.4706051,-8072,-2.4714446
2023-10-26 13:47:49.755,95830,202382,183838,-58037,-17.769478475,-7073,-2.165575775
2023-10-26 13:47:49.755,95831,202277,183784,-42255,-12.937424625,-6198,-1.89767265
2023-10-26 13:47:49.755,95832,202135,183743,45070,13.79930725,-7041,-2.155778175
2023-10-26 13:47:49.755,95833,202004,183693,33992,10.4075006,-7821,-2.394594675
2023-10-26 13:47:49.785,95834,201898,183652,-55846,-17.09864905,-6926,-2.12056805
2023-10-26 13:47:49.785,95835,201784,183603,-41324,-12.6523757,-6111,-1.871035425
2023-10-26 13:47:49.785,95836,201674,183572,45555,13.947802125,-6978,-2.13648915
2023-10-26 13:47:49.785,95837,201604,183547,36422,11.15150585,-7769,-2.378673575
2023-10-26 13:47:49.815,95838,201502,183506,-53731,-16.451088925,-6851,-2.097604925
2023-10-26 13:47:49.815,95839,201439,183489,-41107,-12.585935725,-5957,-1.823884475
2023-10-26 13:47:49.815,95840,201351,183461,44338,13.57518715,-6743,-2.064538025
2023-10-26 13:47:49.845,95841,201293,183427,35686,10.92616105,-7497,-2.295393975
2023-10-26 13:47:49.845,95842,201245,183407,-55149,-16.885245075,-6558,-2.00789565
2023-10-26 13:47:49.875,95843,201186,183376,-43723,-13.386889525,-5651,-1.730194925
2023-10-26 13:47:49.875,95844,201160,183376,42832,13.1140876,-6472,-1.9815646
2023-10-26 13:47:50.005,95845,201119,183350,35927,10.999949225,-7320,-2.241201
2023-10-26 13:47:50.035,95846,201092,183344,-55663,-17.042619025,-6485,-1.985544875
2023-10-26 13:47:50.065,95847,201081,183343,-47454,-14.52922845,-5645,-1.728357875
2023-10-26 13:47:50.095,95848,201053,183330,38156,11.6824133,-6484,-1.9852387
2023-10-26 13:47:50.095,95849,201028,183331,35670,10.92126225,-7297,-2.234158975
2023-10-26 13:47:50.095,95850,201023,183326,-53698,-16.44098515,-6373,-1.951253275
2023-10-26 13:47:50.095,95851,201038,183327,-46835,-14.339706125,-5386,-1.64905855
2023-10-26 13:47:50.125,95852,201038,183335,39413,12.067275275,-6056,-1.8541958
2023-10-26 13:47:50.125,95853,201054,183327,38571,11.809475925,-6728,-2.0599454
2023-10-26 13:47:50.125,95854,201067,183337,-52380,-16.0374465,-5653,-1.730807275
2023-10-26 13:47:50.125,95855,201093,183354,-44970,-13.76868975,-4472,-1.3692146
2023-10-26 13:47:50.125,95856,201105,183361,42164,12.9095627,-4973,-1.522608275
2023-10-26 13:47:50.125,95857,201105,183371,40001,12.247306175,-5573,-1.706313275
2023-10-26 13:47:50.125,95858,201136,183368,-51169,-15.666668575,-4520,-1.383911
2023-10-26 13:47:50.125,95859,201129,183377,-46701,-14.298678675,-3432,-1.0507926
2023-10-26 13:47:50.165,95860,201158,183397,40528,12.4086604,-4100,-1.2553175
2023-10-26 13:47:50.165,95861,201187,183378,40606,12.43254205,-4923,-1.507299525
2023-10-26 13:47:50.165,95862,201204,183394,-50650,-15.50776375,-4104,-1.2565422
2023-10-26 13:47:50.165,95863,201228,183395,-46719,-14.304189825,-3252,-0.9956811
2023-10-26 13:47:50.165,95864,201240,183416,40290,12.33579075,-4225,-1.293589375
2023-10-26 13:47:50.165,95865,201297,183418,40229,12.317114075,-5455,-1.670184625
2023-10-26 13:47:50.165,95866,201301,183440,-52183,-15.977130025,-5034,-1.54128495
2023-10-26 13:47:50.165,95867,201327,183440,-50488,-15.4581634,-4438,-1.35880465
2023-10-26 13:47:50.165,95868,201330,183439,36259,11.101599325,-5508,-1.6864119
2023-10-26 13:47:50.165,95869,201342,183443,39993,12.244856775,-6706,-2.05320955
2023-10-26 13:47:50.165,95870,201364,183462,-51761,-15.847924175,-6135,-1.878383625
2023-10-26 13:47:50.165,95871,201373,183465,-53876,-16.4954843,-5296,-1.6215028
2023-10-26 13:47:50.195,95872,201373,183479,32908,10.0756069,-6064,-1.8566452
2023-10-26 13:47:50.195,95873,201384,183452,42389,12.978452075,-6935,-2.123323625
2023-10-26 13:47:50.195,95874,201399,183464,-49116,-15.0380913,-6024,-1.8443982
2023-10-26 13:47:50.195,95875,201403,183461,-50410,-15.43428175,-4820,-1.4757635
2023-10-26 13:47:50.195,95876,201402,183474,36584,11.2011062,-5252,-1.6080311
2023-10-26 13:47:50.195,95877,201415,183467,43261,13.245436675,-5920,-1.812556
2023-10-26 13:47:50.195,95878,201408,183461,-47618,-14.57944115,-4945,-1.514035375
2023-10-26 13:47:50.195,95879,201400,183465,-49375,-15.117390625,-3753,-1.149074775
2023-10-26 13:47:50.195,95880,201404,183478,37248,11.4044064,-4248,-1.3006314
2023-10-26 13:47:50.195,95881,201400,183478,44160,13.520688,-5029,-1.539754075
2023-10-26 13:47:50.195,95882,201387,183468,-48345,-14.802030375,-4205,-1.287465875
2023-10-26 13:47:50.195,95883,201393,183468,-51533,-15.778116275,-3227,-0.988026725
2023-10-26 13:47:50.195,95884,201376,183473,36054,11.03883345,-4048,-1.2393964
2023-10-26 13:47:50.195,95885,201383,183464,44842,13.72949935,-5236,-1.6031323
2023-10-26 13:47:50.225,95886,201403,183466,-46426,-14.21448055,-4781,-1.463822675
2023-10-26 13:47:50.225,95887,201362,183450,-51497,-15.767093975,-4057,-1.242151975
2023-10-26 13:47:50.225,95888,201358,183447,35163,10.766031525,-5080,-1.555369
2023-10-26 13:47:50.225,95889,201307,183432,45633,13.971683775,-6463,-1.978809025
2023-10-26 13:47:50.225,95890,201317,183440,-45274,-13.86176695,-6119,-1.873484825
2023-10-26 13:47:50.225,95891,201307,183418,-52839,-16.177980825,-5363,-1.642016525
2023-10-26 13:47:50.225,95892,201292,183419,32364,9.9090477,-6218,-1.90379615
2023-10-26 13:47:50.225,95893,201291,183423,46251,14.160899925,-7348,-2.2497739
2023-10-26 13:47:50.225,95894,201247,183424,-44377,-13.587127975,-6717,-2.056577475
2023-10-26 13:47:50.225,95895,201247,183397,-52490,-16.07112575,-5630,-1.72376525
2023-10-26 13:47:50.225,95896,201244,183403,32760,10.030293,-6117,-1.872872475
2023-10-26 13:47:50.225,95897,201260,183394,45857,14.040266975,-6912,-2.1162816
2023-10-26 13:47:50.225,95898,201245,183397,-44638,-13.66703965,-6005,-1.838580875
2023-10-26 13:47:50.225,95899,201245,183406,-52810,-16.16910175,-4665,-1.428306375
2023-10-26 13:47:50.225,95900,201233,183387,33743,10.331263025,-4959,-1.518321825
2023-10-26 13:47:50.225,95901,201256,183401,49938,15.28976715,-5697,-1.744278975
2023-10-26 13:47:50.225,95902,201253,183392,-40221,-12.314664675,-4860,-1.4880105
2023-10-26 13:47:50.255,95903,201273,183408,-51296,-15.7055528,-3676,-1.1254993
2023-10-26 13:47:50.255,95904,201277,183417,34972,10.7075521,-4187,-1.281954725
2023-10-26 13:47:50.255,95905,201296,183420,49032,15.0123726,-5159,-1.579556825
2023-10-26 13:47:50.255,95906,201322,183423,-42506,-13.01427455,-4520,-1.383911
2023-10-26 13:47:50.255,95907,201337,183435,-54757,-16.765224475,-3483,-1.066407525
2023-10-26 13:47:50.255,95908,201343,183433,30180,9.2403615,-4139,-1.267258325
2023-10-26 13:47:50.255,95909,201374,183439,48201,14.757941175,-5274,-1.61476695
2023-10-26 13:47:50.255,95910,201383,183442,-41451,-12.691259925,-4735,-1.449738625
2023-10-26 13:47:50.255,95911,201409,183441,-56064,-17.1653952,-3686,-1.12856105
2023-10-26 13:47:50.255,95912,201401,183466,29570,9.05359475,-4265,-1.305836375
2023-10-26 13:47:50.255,95913,201435,183467,51215,15.680752625,-5335,-1.633443625
2023-10-26 13:47:50.255,95914,201444,183468,-38005,-11.636180875,-4789,-1.466272075
2023-10-26 13:47:50.255,95915,201482,183477,-53476,-16.3730143,-3753,-1.149074775
2023-10-26 13:47:50.255,95916,201486,183492,31570,9.66594475,-4325,-1.324206875
2023-10-26 13:47:50.255,95917,201532,183517,53060,16.2456455,-5365,-1.642628875
2023-10-26 13:47:50.285,95918,201536,183508,-36180,-11.0774115,-4732,-1.4488201
2023-10-26 13:47:50.285,95919,201583,183520,-54694,-16.74593545,-3516,-1.0765113
2023-10-26 13:47:50.285,95920,201611,183527,28585,8.752012375,-3852,-1.1793861
2023-10-26 13:47:50.285,95921,201623,183539,51203,15.677078525,-4679,-1.432592825
2023-10-26 13:47:50.285,95922,201656,183559,-37645,-11.525957875,-3903,-1.195001025
2023-10-26 13:47:50.285,95923,201679,183562,-56098,-17.17580515,-2621,-0.802484675
2023-10-26 13:47:50.285,95924,201694,183566,26254,8.03831845,-2984,-0.9136262
2023-10-26 13:47:50.285,95925,201716,183576,49049,15.017577575,-3942,-1.20694185
2023-10-26 13:47:50.285,95926,201726,183585,-38962,-11.92919035,-3352,-1.0262986
2023-10-26 13:47:50.285,95927,201731,183583,-58564,-17.9308327,-2277,-0.697160475
2023-10-26 13:47:50.285,95928,201777,183590,24401,7.470976175,-2906,-0.88974455
2023-10-26 13:47:50.285,95929,201793,183601,50120,15.345491,-4188,-1.2822609
2023-10-26 13:47:50.315,95930,201809,183615,-38024,-11.6419982,-3859,-1.181529325
2023-10-26 13:47:50.315,95931,201817,183624,-59544,-18.2308842,-2876,-0.8805593
2023-10-26 13:47:50.315,95932,201844,183620,24054,7.36473345,-3437,-1.052323475
2023-10-26 13:47:50.315,95933,201858,183623,50139,15.351308325,-4549,-1.392790075
2023-10-26 13:47:50.315,95934,201873,183643,-37930,-11.61321775,-3991,-1.221944425
2023-10-26 13:47:50.315,95935,201914,183641,-62436,-19.1163423,-2740,-0.8389195
2023-10-26 13:47:50.315,95936,201912,183649,18647,5.709245225,-3041,-0.931078175
2023-10-26 13:47:50.315,95937,201957,183660,47179,14.445030325,-3974,-1.21673945
2023-10-26 13:47:50.315,95938,201971,183664,-38822,-11.88632585,-3318,-1.01588865
2023-10-26 13:47:50.315,95939,201992,183680,-61439,-18.811085825,-1986,-0.60806355
2023-10-26 13:47:50.315,95940,202003,183691,21140,6.4725395,-2250,-0.68889375
2023-10-26 13:47:50.315,95941,202020,183696,50891,15.581551925,-3302,-1.01098985
2023-10-26 13:47:50.315,95942,202042,183704,-35712,-10.9341216,-2958,-0.90566565
2023-10-26 13:47:50.345,95943,202055,183706,-60283,-18.457147525,-2065,-0.632251375
2023-10-26 13:47:50.345,95944,202068,183713,22921,7.017837175,-2816,-0.8621888
2023-10-26 13:47:50.345,95945,202097,183708,52240,15.994582,-4322,-1.32328835
2023-10-26 13:47:50.345,95946,202108,183727,-35496,-10.8679878,-4305,-1.318083375
2023-10-26 13:47:50.345,95947,202119,183723,-63509,-19.444868075,-3565,-1.091513875
2023-10-26 13:47:50.345,95948,202151,183732,17971,5.502270925,-4327,-1.324819225
2023-10-26 13:47:50.345,95949,202164,183750,50971,15.606045925,-5764,-1.7647927
2023-10-26 13:47:50.345,95950,202177,183757,-35181,-10.771542675,-5635,-1.725296125
2023-10-26 13:47:50.345,95951,202201,183778,-62294,-19.07286545,-4752,-1.4549436
2023-10-26 13:47:50.345,95952,202217,183780,20898,6.39844515,-5388,-1.6496709
2023-10-26 13:47:50.345,95953,202237,183781,53630,16.42016525,-6773,-2.073723275
2023-10-26 13:47:50.375,95954,202249,183789,-31580,-9.6690065,-6653,-2.036982275
2023-10-26 13:47:50.375,95955,202279,183800,-62220,-19.0502085,-5782,-1.77030385
2023-10-26 13:47:50.375,95956,202298,183817,17865,5.469816375,-6410,-1.96258175
2023-10-26 13:47:50.375,95957,202316,183805,53602,16.41159235,-7778,-2.38142915
2023-10-26 13:47:50.375,95958,202336,183819,-31143,-9.535208025,-7594,-2.32509295
2023-10-26 13:47:50.375,95959,202363,183824,-62037,-18.994178475,-6568,-2.0109574
2023-10-26 13:47:50.375,95960,202352,183828,18505,5.665768375,-6963,-2.131896525
2023-10-26 13:47:50.375,95961,202366,183837,55751,17.069562425,-8055,-2.466239625
2023-10-26 13:47:50.375,95962,202385,183834,-29772,-9.1154421,-7586,-2.32264355
2023-10-26 13:47:50.415,95963,202410,183849,-64704,-19.8107472,-6288,-1.9252284
2023-10-26 13:47:50.415,95964,202405,183851,13161,4.029569175,-6476,-1.9827893
2023-10-26 13:47:50.415,95965,202403,183836,51526,15.77597305,-7490,-2.29325075
2023-10-26 13:47:50.415,95966,202428,183852,-31326,-9.59123805,-7039,-2.155165825
2023-10-26 13:47:50.415,95967,202426,183852,-65373,-20.015578275,-5790,-1.77275325
2023-10-26 13:47:50.415,95968,202421,183840,13094,4.00905545,-6030,-1.84623525
2023-10-26 13:47:50.415,95969,202467,183847,53254,16.30504345,-7089,-2.170474575
2023-10-26 13:47:50.415,95970,202463,183858,-29637,-9.074108475,-6667,-2.041268725
2023-10-26 13:47:50.415,95971,202484,183864,-65310,-19.99628925,-5428,-1.6619179
2023-10-26 13:47:50.415,95972,202492,183875,12364,3.7855477,-5726,-1.75315805
2023-10-26 13:47:50.445,95973,202528,183890,53152,16.2738136,-6930,-2.12179275
2023-10-26 13:47:50.445,95974,202537,183880,-28941,-8.861010675,-6642,-2.03361435
2023-10-26 13:47:50.445,95975,202573,183907,-65615,-20.089672625,-5399,-1.653038825
2023-10-26 13:47:50.445,95976,202593,183901,11534,3.53142245,-5545,-1.697740375
2023-10-26 13:47:50.445,95977,202603,183911,53253,16.304737275,-6540,-2.0023845
2023-10-26 13:47:50.445,95978,202614,183910,-28507,-8.728130725,-6053,-1.853277275
2023-10-26 13:47:50.445,95979,202640,183913,-66447,-20.344410225,-4678,-1.43228665
2023-10-26 13:47:50.445,95980,202620,183926,10129,3.101246575,-4836,-1.4806623
2023-10-26 13:47:50.475,95981,202627,183921,54161,16.582744175,-6029,-1.845929075
2023-10-26 13:47:50.475,95982,202650,183926,-26123,-7.998209525,-5880,-1.800309
2023-10-26 13:47:50.475,95983,202667,183933,-64778,-19.83340415,-4855,-1.486479625
2023-10-26 13:47:50.475,95984,202665,183934,11484,3.5161137,-5306,-1.62456455
2023-10-26 13:47:50.475,95985,202644,183933,54309,16.628058075,-6763,-2.070661525
2023-10-26 13:47:50.475,95986,202648,183916,-28643,-8.769770525,-6836,-2.0930123
2023-10-26 13:47:50.475,95987,202607,183920,-68855,-21.081679625,-5933,-1.816536275
2023-10-26 13:47:50.475,95988,202576,183872,7768,2.3783674,-6394,-1.95768295
2023-10-26 13:47:50.505,95989,202492,183859,55412,16.9657691,-7785,-2.383572375
2023-10-26 13:47:50.505,95990,202427,183824,-23621,-7.232159675,-7733,-2.367651275
2023-10-26 13:47:50.505,95991,202346,183790,-66385,-20.325427375,-6642,-2.03361435
2023-10-26 13:47:50.505,95992,202228,183743,8683,2.658517525,-6894,-2.11077045
2023-10-26 13:47:50.505,95993,202145,183724,54499,16.686231325,-8133,-2.490121275
2023-10-26 13:47:50.505,95994,202022,183667,-24540,-7.5135345,-8008,-2.4518494
2023-10-26 13:47:50.535,95995,201893,183611,-67619,-20.703247325,-6865,-2.101891375
2023-10-26 13:47:50.535,95996,201739,183545,8495,2.600956625,-7041,-2.155778175
2023-10-26 13:47:50.535,95997,201639,183534,57288,17.5401534,-8181,-2.504817675
2023-10-26 13:47:50.565,95998,201502,183479,-21230,-6.50009525,-7932,-2.4285801
2023-10-26 13:47:50.565,95999,201377,183440,-67499,-20.666506325,-6653,-2.036982275
2023-10-26 13:47:50.565,96000,201259,183375,6104,1.8688922,-6737,-2.062700975
2023-10-26 13:47:50.565,96001,201135,183350,56391,17.265514425,-7883,-2.413577525
2023-10-26 13:47:50.565,96002,201042,183297,-20858,-6.38619815,-7733,-2.367651275
2023-10-26 13:47:50.595,96003,200940,183269,-66841,-20.465043175,-6594,-2.01891795
2023-10-26 13:47:50.595,96004,200835,183241,5292,1.6202781,-6805,-2.083520875
2023-10-26 13:47:50.595,96005,200746,183209,57584,17.6307812,-8033,-2.459503775
2023-10-26 13:47:50.595,96006,200668,183179,-16996,-5.2037503,-7875,-2.411128125
2023-10-26 13:47:50.595,96007,200609,183153,-65528,-20.0630354,-6619,-2.026572325
2023-10-26 13:47:50.625,96008,200540,183135,5692,1.7427481,-6698,-2.05076015
2023-10-26 13:47:50.625,96009,200486,183105,57356,17.5609733,-7894,-2.41694545
2023-10-26 13:47:50.625,96010,200427,183086,-17571,-5.379800925,-7817,-2.393369975
2023-10-26 13:47:50.625,96011,200398,183072,-66304,-20.3006272,-6671,-2.042493425
2023-10-26 13:47:50.665,96012,200349,183043,5409,1.656100575,-6811,-2.085357925
2023-10-26 13:47:50.665,96013,200326,183026,58794,18.00125295,-7979,-2.442970325
2023-10-26 13:47:50.665,96014,200277,183037,-16120,-4.935541,-7755,-2.374387125
2023-10-26 13:47:50.665,96015,200293,183029,-67094,-20.54250545,-6380,-1.9533965
2023-10-26 13:47:50.665,96016,200259,183014,4308,1.3190019,-6332,-1.9387001
2023-10-26 13:47:50.665,96017,200262,183017,59243,18.138725525,-7465,-2.285596375
2023-10-26 13:47:50.695,96018,200255,183003,-14367,-4.398816225,-7330,-2.24426275
2023-10-26 13:47:50.695,96019,200258,183015,-65856,-20.1634608,-6021,-1.843479675
2023-10-26 13:47:50.695,96020,200236,183020,4104,1.2565422,-5950,-1.82174125
2023-10-26 13:47:50.695,96021,200270,183024,59542,18.23027185,-7033,-2.153328775
2023-10-26 13:47:50.695,96022,200265,183034,-12701,-3.888728675,-6874,-2.10464695
2023-10-26 13:47:50.725,96023,200276,183038,-65750,-20.13100625,-5567,-1.704476225
2023-10-26 13:47:50.725,96024,200257,183031,2304,0.7054272,-5535,-1.694678625
2023-10-26 13:47:50.725,96025,200298,183032,58498,17.91062515,-6689,-2.048004575
2023-10-26 13:47:50.725,96026,200308,183029,-13973,-4.278183275,-6571,-2.011875925
2023-10-26 13:47:50.755,96027,200315,183047,-67394,-20.63435795,-5200,-1.59211
2023-10-26 13:47:50.755,96028,200305,183041,2610,0.79911675,-5009,-1.533630575
2023-10-26 13:47:50.755,96029,200323,183041,59472,18.2088396,-6026,-1.84501055
2023-10-26 13:47:50.785,96030,200328,183064,-11764,-3.6018427,-5883,-1.801227525
2023-10-26 13:47:50.785,96031,200389,183073,-66614,-20.39554145,-4598,-1.40779265
2023-10-26 13:47:50.785,96032,200388,183080,573,0.175438275,-4545,-1.391565375
2023-10-26 13:47:50.785,96033,200424,183087,59920,18.346006,-5692,-1.7427481
2023-10-26 13:47:50.785,96034,200428,183108,-8383,-2.566665025,-5619,-1.720397325
2023-10-26 13:47:50.815,96035,200472,183115,-65877,-20.169890475,-4304,-1.3177772
2023-10-26 13:47:50.815,96036,200474,183112,-1046,-0.32025905,-4166,-1.27552505
2023-10-26 13:47:50.815,96037,200503,183112,57003,17.452893525,-5275,-1.615073125
2023-10-26 13:47:50.815,96038,200493,183117,-11432,-3.5001926,-5240,-1.604357
2023-10-26 13:47:50.845,96039,200524,183121,-69458,-21.26630315,-3985,-1.220107375
2023-10-26 13:47:50.845,96040,200516,183110,-5205,-1.593640875,-3896,-1.1928578
2023-10-26 13:47:50.845,96041,200508,183106,56365,17.257553875,-5046,-1.54495905
2023-10-26 13:47:50.845,96042,200496,183116,-10267,-3.143498725,-5025,-1.538529375
2023-10-26 13:47:50.845,96043,200502,183093,-69219,-21.193127325,-3746,-1.14693155
2023-10-26 13:47:50.845,96044,200485,183084,-4341,-1.329105675,-3645,-1.116007875
2023-10-26 13:47:50.845,96045,200472,183094,57759,17.684361825,-4852,-1.4855611
2023-10-26 13:47:50.875,96046,200452,183073,-9117,-2.791397475,-4965,-1.520158875
2023-10-26 13:47:50.875,96047,200442,183083,-70484,-21.5804387,-3829,-1.172344075
2023-10-26 13:47:50.875,96048,200396,183052,-6945,-2.126385375,-3817,-1.168669975
2023-10-26 13:47:50.875,96049,200405,183061,56684,17.3552237,-5068,-1.5516949
2023-10-26 13:47:50.875,96050,200373,183049,-8719,-2.669539825,-5163,-1.580781525
2023-10-26 13:47:50.875,96051,200379,183051,-69555,-21.296002125,-3913,-1.198062775
2023-10-26 13:47:50.875,96052,200316,183031,-5930,-1.81561775,-3749,-1.147850075
2023-10-26 13:47:50.875,96053,200313,183032,58485,17.906644875,-4920,-1.506381
2023-10-26 13:47:50.875,96054,200308,183027,-5986,-1.83276355,-5042,-1.54373435
2023-10-26 13:47:50.875,96055,200318,183021,-67996,-20.8186753,-3891,-1.191326925
2023-10-26 13:47:50.915,96056,200309,183026,-6712,-2.0550466,-3879,-1.187652825
2023-10-26 13:47:50.915,96057,200301,183048,58374,17.87265945,-5250,-1.60741875
2023-10-26 13:47:50.915,96058,200293,183045,-5250,-1.60741875,-5587,-1.710599725
2023-10-26 13:47:50.915,96059,200313,183041,-68343,-20.924918025,-4615,-1.412997625
2023-10-26 13:47:50.915,96060,200310,183042,-7727,-2.365814225,-4736,-1.4500448
2023-10-26 13:47:50.915,96061,200305,183048,58175,17.811730625,-6235,-1.909001125
2023-10-26 13:47:50.915,96062,200284,183030,-3542,-1.08447185,-6704,-2.0525972
2023-10-26 13:47:50.915,96063,200292,183040,-69147,-21.171082725,-5801,-1.776121175
2023-10-26 13:47:50.945,96064,200290,183039,-10500,-3.2148375,-5884,-1.8015337
2023-10-26 13:47:50.945,96065,200296,183037,57977,17.751107975,-7260,-2.2228305
2023-10-26 13:47:50.945,96066,200269,183047,-2581,-0.790237675,-7557,-2.313764475
2023-10-26 13:47:50.945,96067,200286,183042,-69200,-21.18731,-6455,-1.976359625
2023-10-26 13:47:50.945,96068,200279,183039,-11038,-3.37955965,-6333,-1.939006275
2023-10-26 13:47:50.945,96069,200309,183034,58309,17.852758075,-7542,-2.30917185
2023-10-26 13:47:50.975,96070,200277,183029,93,0.028474275,-7691,-2.354791925
2023-10-26 13:47:50.975,96071,200300,183042,-67937,-20.800610975,-6392,-1.9570706
2023-10-26 13:47:50.975,96072,200316,183041,-10510,-3.21789925,-6040,-1.849297
2023-10-26 13:47:50.975,96073,200323,183060,58775,17.995435625,-7073,-2.165575775
2023-10-26 13:47:50.975,96074,200329,183060,46,0.01408405,-7139,-2.185783325
2023-10-26 13:47:51.005,96075,200356,183079,-68410,-20.94543175,-5817,-1.781019975
2023-10-26 13:47:51.005,96076,200377,183079,-11665,-3.571531375,-5479,-1.677532825
2023-10-26 13:47:51.005,96077,200409,183078,57317,17.549032475,-6565,-2.010038875
2023-10-26 13:47:51.035,96078,200407,183089,-675,-0.206668125,-6685,-2.046779875
2023-10-26 13:47:51.035,96079,200452,183116,-69223,-21.194352025,-5363,-1.642016525
2023-10-26 13:47:51.035,96080,200468,183112,-14655,-4.486994625,-5000,-1.530875
2023-10-26 13:47:51.065,96081,200500,183152,56770,17.38155475,-6115,-1.872260125
2023-10-26 13:47:51.065,96082,200491,183140,2838,0.86892465,-6341,-1.941455675
2023-10-26 13:47:51.095,96083,200529,183161,-66683,-20.416667525,-5170,-1.58292475
2023-10-26 13:47:51.095,96084,200566,183167,-12071,-3.695838425,-4977,-1.523832975
2023-10-26 13:47:51.095,96085,200602,183171,60055,18.387339625,-6273,-1.920635775
2023-10-26 13:47:51.095,96086,200584,183176,4959,1.518321825,-6643,-2.033920525
2023-10-26 13:47:51.095,96087,200620,183193,-67148,-20.5590389,-5495,-1.682431625
2023-10-26 13:47:51.125,96088,200631,183188,-12765,-3.908323875,-5187,-1.588129725
2023-10-26 13:47:51.125,96089,200654,183198,60354,18.47888595,-6306,-1.93073955
2023-10-26 13:47:51.125,96090,200658,183195,6425,1.967174375,-6520,-1.996261
2023-10-26 13:47:51.125,96091,200675,183200,-67769,-20.749173575,-5245,-1.605887875
2023-10-26 13:47:51.165,96092,200689,183199,-16025,-4.906454375,-4833,-1.479743775
2023-10-26 13:47:51.165,96093,200691,183209,57260,17.5315805,-5920,-1.812556
2023-10-26 13:47:51.165,96094,200693,183189,5004,1.5320997,-6191,-1.895529425
2023-10-26 13:47:51.195,96095,200710,183240,-68309,-20.914508075,-5008,-1.5333244
2023-10-26 13:47:51.315,96096,200746,183218,-16697,-5.112203975,-4688,-1.4353484
2023-10-26 13:47:51.315,96097,200741,183235,57510,17.60812425,-5900,-1.8064325
2023-10-26 13:47:51.345,96098,200769,183230,6495,1.988606625,-6324,-1.9362507
2023-10-26 13:47:51.345,96099,200778,183249,-68341,-20.924305675,-5242,-1.60496935
2023-10-26 13:47:51.345,96100,200803,183264,-18900,-5.7867075,-4941,-1.512810675
2023-10-26 13:47:51.385,96101,200814,183262,56111,17.179785425,-6107,-1.869810725
2023-10-26 13:47:51.385,96102,200821,183284,6382,1.95400885,-6414,-1.96380645
2023-10-26 13:47:51.385,96103,200890,183305,-67892,-20.7868331,-5159,-1.579556825
2023-10-26 13:47:51.415,96104,200885,183301,-18113,-5.545747775,-4668,-1.4292249
2023-10-26 13:47:51.415,96105,200918,183312,57870,17.71834725,-5640,-1.726827
2023-10-26 13:47:51.445,96106,200933,183324,9975,3.054095625,-5753,-1.761424775
2023-10-26 13:47:51.445,96107,200945,183330,-66570,-20.38206975,-4301,-1.316858675
2023-10-26 13:47:51.445,96108,200953,183338,-19590,-5.99796825,-3640,-1.114477
2023-10-26 13:47:51.445,96109,200996,183357,56860,17.4091105,-4578,-1.40166915
2023-10-26 13:47:51.445,96110,200987,183334,9613,2.943260275,-4845,-1.483417875
2023-10-26 13:47:51.445,96111,201004,183360,-67951,-20.804897425,-3662,-1.12121285
2023-10-26 13:47:51.445,96112,201026,183364,-21829,-6.683494075,-3305,-1.011908375
2023-10-26 13:47:51.476,96113,201045,183361,55124,16.8775907,-4562,-1.39677035
2023-10-26 13:47:51.476,96114,201014,183371,8641,2.645658175,-5128,-1.5700654
2023-10-26 13:47:51.476,96115,201045,183359,-68933,-21.105561275,-4167,-1.275831225
2023-10-26 13:47:51.476,96116,201047,183365,-25964,-7.9495277,-3966,-1.21429005
2023-10-26 13:47:51.476,96117,201071,183371,51291,15.704021925,-5368,-1.6435474
2023-10-26 13:47:51.476,96118,201074,183362,8160,2.498388,-6064,-1.8566452
2023-10-26 13:47:51.476,96119,201087,183380,-68115,-20.855110125,-5140,-1.5737395
2023-10-26 13:47:51.476,96120,201102,183381,-24358,-7.45781065,-4834,-1.48004995
2023-10-26 13:47:51.476,96121,201146,183393,54446,16.67000405,-6034,-1.84745995
2023-10-26 13:47:51.510,96122,201134,183392,12331,3.775443925,-6501,-1.990443675
2023-10-26 13:47:51.510,96123,201167,183421,-66043,-20.220715525,-5345,-1.636505375
2023-10-26 13:47:51.510,96124,201186,183411,-22481,-6.883120175,-4830,-1.47882525
2023-10-26 13:47:51.510,96125,201205,183430,55675,17.046293125,-5880,-1.800309
2023-10-26 13:47:51.510,96126,201211,183430,14448,4.4236164,-6251,-1.913899925
2023-10-26 13:47:51.510,96127,201234,183451,-65847,-20.160705225,-5014,-1.53516145
2023-10-26 13:47:51.510,96128,201238,183446,-25232,-7.7254076,-4436,-1.3581923
2023-10-26 13:47:51.545,96129,201263,183450,53284,16.3142287,-5504,-1.6851872
2023-10-26 13:47:51.545,96130,201284,183453,13728,4.2031704,-6007,-1.839193225
2023-10-26 13:47:51.545,96131,201285,183479,-65614,-20.08936645,-4977,-1.523832975
2023-10-26 13:47:51.545,96132,201320,183467,-25339,-7.758168325,-4630,-1.41759025
2023-10-26 13:47:51.545,96133,201327,183484,53621,16.417409675,-5968,-1.8272524
2023-10-26 13:47:51.545,96134,201312,183481,13576,4.1566318,-6781,-2.076172675
2023-10-26 13:47:51.565,96135,201338,183496,-67924,-20.7966307,-6013,-1.841030275
2023-10-26 13:47:51.565,96136,201337,183485,-29510,-9.03522425,-5825,-1.783469375
2023-10-26 13:47:51.565,96137,201370,183498,52082,15.94620635,-7245,-2.218237875
2023-10-26 13:47:51.565,96138,201350,183487,15348,4.6991739,-8070,-2.47083225
2023-10-26 13:47:51.565,96139,201400,183515,-67226,-20.58292055,-7204,-2.2056847
2023-10-26 13:47:51.612,96140,201400,183526,-30908,-9.4632569,-6774,-2.07402945
2023-10-26 13:47:51.612,96141,201431,183538,50401,15.431526175,-7818,-2.39367615
2023-10-26 13:47:51.612,96142,201447,183526,15524,4.7530607,-8183,-2.505430025
2023-10-26 13:47:51.612,96143,201495,183568,-66809,-20.455245575,-6828,-2.0905629
2023-10-26 13:47:51.612,96144,201494,183569,-30370,-9.29853475,-5948,-1.8211289
2023-10-26 13:47:51.612,96145,201543,183571,51521,15.774442175,-6692,-2.0489231
2023-10-26 13:47:51.612,96146,201561,183589,16425,5.028924375,-6969,-2.133733575
2023-10-26 13:47:51.612,96147,201574,183601,-65783,-20.141110025,-5682,-1.73968635
2023-10-26 13:47:51.642,96148,201587,183597,-31487,-9.640532225,-4934,-1.51066745
2023-10-26 13:47:51.642,96149,201634,183618,50595,15.490924125,-5837,-1.787143475
2023-10-26 13:47:51.642,96150,201647,183621,18430,5.64280525,-6295,-1.927371625
2023-10-26 13:47:51.642,96151,201641,183636,-65808,-20.1487644,-5211,-1.595477925
2023-10-26 13:47:51.642,96152,201655,183620,-32970,-10.09458975,-4735,-1.449738625
2023-10-26 13:47:51.642,96153,201674,183625,51958,15.90824065,-6011,-1.840417925
2023-10-26 13:47:51.642,96154,201679,183611,22815,6.985382625,-6872,-2.1040346
2023-10-26 13:47:51.642,96155,201668,183631,-62736,-19.2081948,-6085,-1.863074875
2023-10-26 13:47:51.678,96156,201662,183619,-29618,-9.06829115,-5731,-1.754688925
2023-10-26 13:47:51.678,96157,201663,183612,54258,16.61244315,-7013,-2.147205275
