Time, Sample Count, IR Count, Red Count, Raw ECG, Raw ECG (mV), Filtered ECG, Filtered ECG (mV)
2023-10-26 13:40:49.879,61839,142,0,280,0.085729,-307,-0.093995725
2023-10-26 13:40:49.919,61840,221,28,-1263,-0.386699025,-280,-0.085729
2023-10-26 13:40:49.919,61841,143,0,-316,-0.0967513,-267,-0.081748725
2023-10-26 13:40:49.919,61842,220,28,859,0.263004325,-260,-0.0796055
2023-10-26 13:40:49.919,61843,142,0,401,0.122776175,-238,-0.07286965
2023-10-26 13:40:49.939,61844,222,29,-1161,-0.355469175,-213,-0.065215275
2023-10-26 13:40:49.939,61845,138,0,-296,-0.0906278,-213,-0.065215275
2023-10-26 13:40:49.939,61846,222,28,327,0.100119225,-236,-0.0722573
2023-10-26 13:40:49.939,61847,142,0,-291,-0.089096925,-255,-0.078074625
2023-10-26 13:40:49.939,61848,221,30,-1089,-0.333424575,-268,-0.0820549
2023-10-26 13:40:49.959,61849,139,0,-421,-0.128899675,-295,-0.090321625
2023-10-26 13:40:49.959,61850,220,29,40,0.012247,-328,-0.1004254
2023-10-26 13:40:49.959,61851,139,0,-843,-0.258105525,-336,-0.1028748
2023-10-26 13:40:49.959,61852,221,29,-1322,-0.40476335,-323,-0.098894525
2023-10-26 13:40:49.989,61853,139,0,-173,-0.052968275,-324,-0.0992007
2023-10-26 13:40:49.989,61854,222,30,-20,-0.0061235,-328,-0.1004254
2023-10-26 13:40:49.989,61855,139,0,-923,-0.282599525,-298,-0.09124015
2023-10-26 13:40:49.989,61856,219,31,-1145,-0.350570375,-244,-0.0747067
2023-10-26 13:40:50.019,61857,139,0,-538,-0.16472215,-201,-0.061541175
2023-10-26 13:40:50.019,61858,219,30,-283,-0.086647525,-203,-0.062153525
2023-10-26 13:40:50.019,61859,138,0,-1001,-0.306481175,-157,-0.048069475
2023-10-26 13:40:50.019,61860,219,30,-1721,-0.526927175,-126,-0.03857805
2023-10-26 13:40:50.019,61861,137,0,-652,-0.1996261,-94,-0.02878045
2023-10-26 13:40:50.019,61862,219,29,-109,-0.033373075,-91,-0.027861925
2023-10-26 13:40:50.049,61863,138,0,-977,-0.299132975,-84,-0.0257187
2023-10-26 13:40:50.049,61864,218,32,-2009,-0.615105575,-67,-0.020513725
2023-10-26 13:40:50.049,61865,138,0,-1004,-0.3073997,-72,-0.0220446
2023-10-26 13:40:50.049,61866,218,31,-492,-0.1506381,-117,-0.035822475
2023-10-26 13:40:50.049,61867,136,0,-1220,-0.3735335,-174,-0.05327445
2023-10-26 13:40:50.049,61868,218,32,-2084,-0.6380687,-223,-0.068277025
2023-10-26 13:40:50.049,61869,138,0,-1122,-0.34352835,-300,-0.0918525
2023-10-26 13:40:50.079,61870,219,31,-561,-0.171764175,-383,-0.117265025
2023-10-26 13:40:50.079,61871,137,0,-1071,-0.327913425,-395,-0.120939125
2023-10-26 13:40:50.079,61872,218,32,-1933,-0.591836275,-434,-0.13287995
2023-10-26 13:40:50.079,61873,136,0,-1130,-0.34597775,-471,-0.144208425
2023-10-26 13:40:50.079,61874,218,33,-382,-0.11695885,-516,-0.1579863
2023-10-26 13:40:50.079,61875,135,0,-862,-0.26392285,-557,-0.170539475
2023-10-26 13:40:50.079,61876,217,35,-1756,-0.5376433,-592,-0.1812556
2023-10-26 13:40:50.079,61877,134,0,-1100,-0.3367925,-639,-0.195645825
2023-10-26 13:40:50.079,61878,217,35,-601,-0.184011175,-689,-0.210954575
2023-10-26 13:40:50.119,61879,137,0,-1243,-0.380575525,-715,-0.218915125
2023-10-26 13:40:50.119,61880,215,35,-1943,-0.594898025,-725,-0.221976875
2023-10-26 13:40:50.119,61881,135,0,-1175,-0.359755625,-759,-0.232386825
2023-10-26 13:40:50.119,61882,215,34,-444,-0.1359417,-813,-0.248920275
2023-10-26 13:40:50.119,61883,135,0,-1234,-0.37781995,-855,-0.261779625
2023-10-26 13:40:50.119,61884,214,35,-1954,-0.59826595,-888,-0.2718834
2023-10-26 13:40:50.119,61885,134,0,-1254,-0.38394345,-939,-0.287498325
2023-10-26 13:40:50.119,61886,215,35,-671,-0.205443425,-1003,-0.307093525
2023-10-26 13:40:50.149,61887,134,0,-1142,-0.34965185,-1047,-0.320565225
2023-10-26 13:40:50.149,61888,215,35,-2113,-0.646947775,-1069,-0.327301075
2023-10-26 13:40:50.149,61889,134,0,-1346,-0.41211155,-1100,-0.3367925
2023-10-26 13:40:50.149,61890,212,37,-603,-0.184623525,-1144,-0.3502642
2023-10-26 13:40:50.149,61891,133,0,-1285,-0.393434875,-1168,-0.3576124
2023-10-26 13:40:50.149,61892,214,37,-2389,-0.731452075,-1160,-0.355163
2023-10-26 13:40:50.149,61893,133,0,-1388,-0.4249709,-1153,-0.353019775
2023-10-26 13:40:50.179,61894,213,37,-606,-0.18554205,-1162,-0.35577535
2023-10-26 13:40:50.179,61895,133,0,-1269,-0.388536075,-1162,-0.35577535
2023-10-26 13:40:50.179,61896,212,38,-2185,-0.668992375,-1146,-0.35087655
2023-10-26 13:40:50.179,61897,131,0,-1176,-0.3600618,-1141,-0.349345675
2023-10-26 13:40:50.179,61898,212,37,-848,-0.2596364,-1149,-0.351795075
2023-10-26 13:40:50.179,61899,131,0,-1629,-0.498759075,-1147,-0.351182725
2023-10-26 13:40:50.179,61900,212,37,-1896,-0.5805078,-1133,-0.346896275
2023-10-26 13:40:50.179,61901,131,0,-1212,-0.3710841,-1134,-0.34720245
2023-10-26 13:40:50.209,61902,210,38,-893,-0.273414275,-1158,-0.35455065
2023-10-26 13:40:50.209,61903,132,0,-1337,-0.409355975,-1180,-0.3612865
2023-10-26 13:40:50.209,61904,208,40,-2100,-0.6429675,-1189,-0.364042075
2023-10-26 13:40:50.209,61905,130,0,-1447,-0.443035225,-1207,-0.369553225
2023-10-26 13:40:50.209,61906,211,41,-717,-0.219527475,-1238,-0.37904465
2023-10-26 13:40:50.209,61907,129,0,-1291,-0.395271925,-1255,-0.384249625
2023-10-26 13:40:50.209,61908,209,40,-1948,-0.5964289,-1257,-0.384861975
2023-10-26 13:40:50.239,61909,129,0,-1250,-0.38271875,-1274,-0.39006695
2023-10-26 13:40:50.239,61910,210,40,-690,-0.21126075,-1309,-0.400783075
2023-10-26 13:40:50.239,61911,128,0,-1178,-0.36067415,-1328,-0.4066004
2023-10-26 13:40:50.239,61912,210,41,-2267,-0.694098725,-1327,-0.406294225
2023-10-26 13:40:50.239,61913,126,0,-1410,-0.43170675,-1334,-0.40843745
2023-10-26 13:40:50.239,61914,210,43,-599,-0.183398825,-1356,-0.4151733
2023-10-26 13:40:50.239,61915,126,0,-1181,-0.361592675,-1372,-0.4200721
2023-10-26 13:40:50.239,61916,208,45,-1848,-0.5658114,-1375,-0.420990625
2023-10-26 13:40:50.269,61917,126,0,-1222,-0.37414585,-1382,-0.42313385
2023-10-26 13:40:50.269,61918,207,44,-563,-0.172376525,-1398,-0.42803265
2023-10-26 13:40:50.269,61919,124,0,-1254,-0.38394345,-1403,-0.429563525
2023-10-26 13:40:50.269,61920,206,46,-2037,-0.623678475,-1388,-0.4249709
2023-10-26 13:40:50.269,61921,125,0,-1249,-0.382412575,-1382,-0.42313385
2023-10-26 13:40:50.269,61922,205,46,-827,-0.253206725,-1396,-0.4274203
2023-10-26 13:40:50.269,61923,126,0,-1568,-0.4800824,-1402,-0.42925735
2023-10-26 13:40:50.299,61924,204,45,-2140,-0.6552145,-1391,-0.425889425
2023-10-26 13:40:50.299,61925,126,0,-1300,-0.3980275,-1386,-0.42435855
2023-10-26 13:40:50.299,61926,208,47,-663,-0.202994025,-1392,-0.4261956
2023-10-26 13:40:50.299,61927,125,0,-1375,-0.420990625,-1382,-0.42313385
2023-10-26 13:40:50.299,61928,206,46,-2319,-0.710019825,-1361,-0.416704175
2023-10-26 13:40:50.299,61929,126,0,-1591,-0.487124425,-1357,-0.415479475
2023-10-26 13:40:50.329,61930,206,49,-1024,-0.3135232,-1369,-0.419153575
2023-10-26 13:40:50.329,61931,125,0,-1612,-0.4935541,-1367,-0.418541225
2023-10-26 13:40:50.329,61932,204,48,-2183,-0.668380025,-1345,-0.411805375
2023-10-26 13:40:50.329,61933,123,0,-1520,-0.465386,-1329,-0.406906575
2023-10-26 13:40:50.329,61934,206,47,-802,-0.24555235,-1328,-0.4066004
2023-10-26 13:40:50.329,61935,123,0,-1487,-0.455282225,-1320,-0.404151
2023-10-26 13:40:50.329,61936,203,50,-2138,-0.65460215,-1300,-0.3980275
2023-10-26 13:40:50.329,61937,122,0,-1307,-0.400170725,-1291,-0.395271925
2023-10-26 13:40:50.369,61938,205,49,-460,-0.1408405,-1298,-0.39741515
2023-10-26 13:40:50.369,61939,121,0,-1427,-0.436911725,-1299,-0.397721325
2023-10-26 13:40:50.369,61940,204,50,-2321,-0.710632175,-1290,-0.39496575
2023-10-26 13:40:50.369,61941,122,0,-1276,-0.3906793,-1294,-0.39619045
2023-10-26 13:40:50.369,61942,205,50,-499,-0.152781325,-1317,-0.403232475
2023-10-26 13:40:50.369,61943,123,0,-1205,-0.368940875,-1332,-0.4078251
2023-10-26 13:40:50.369,61944,203,52,-1977,-0.605307975,-1335,-0.408743625
2023-10-26 13:40:50.399,61945,122,0,-1422,-0.43538085,-1352,-0.4139486
2023-10-26 13:40:50.399,61946,205,51,-724,-0.2216707,-1385,-0.424052375
2023-10-26 13:40:50.399,61947,123,0,-1469,-0.449771075,-1412,-0.4323191
2023-10-26 13:40:50.399,61948,205,52,-2015,-0.616942625,-1427,-0.436911725
2023-10-26 13:40:50.399,61949,120,0,-1136,-0.3478148,-1454,-0.44517845
2023-10-26 13:40:50.429,61950,205,52,-742,-0.22718185,-1493,-0.457119275
2023-10-26 13:40:50.429,61951,120,0,-1707,-0.522640725,-1515,-0.463855125
2023-10-26 13:40:50.429,61952,204,50,-2388,-0.7311459,-1516,-0.4641613
2023-10-26 13:40:50.429,61953,121,0,-1375,-0.420990625,-1521,-0.465692175
2023-10-26 13:40:50.429,61954,203,53,-936,-0.2865798,-1533,-0.469366275
2023-10-26 13:40:50.429,61955,119,0,-1617,-0.495084975,-1525,-0.466916875
2023-10-26 13:40:50.429,61956,203,52,-2192,-0.6711356,-1497,-0.458343975
2023-10-26 13:40:50.459,61957,121,0,-1646,-0.50396405,-1481,-0.453445175
2023-10-26 13:40:50.459,61958,203,51,-1103,-0.337711025,-1479,-0.452832825
2023-10-26 13:40:50.459,61959,120,0,-1588,-0.4862059,-1462,-0.44762785
2023-10-26 13:40:50.459,61960,203,52,-2330,-0.71338775,-1427,-0.436911725
2023-10-26 13:40:50.459,61961,118,0,-1407,-0.430788225,-1400,-0.428645
2023-10-26 13:40:50.459,61962,203,52,-1061,-0.324851675,-1389,-0.425277075
2023-10-26 13:40:50.489,61963,119,0,-2086,-0.63868105,-1370,-0.41945975
2023-10-26 13:40:50.489,61964,205,51,-2116,-0.6478663,-1341,-0.410580675
2023-10-26 13:40:50.489,61965,120,0,-883,-0.270352525,-1329,-0.406906575
2023-10-26 13:40:50.489,61966,203,51,-603,-0.184623525,-1339,-0.409968325
2023-10-26 13:40:50.489,61967,119,0,-1309,-0.400783075,-1345,-0.411805375
2023-10-26 13:40:50.489,61968,200,51,-1913,-0.585712775,-1342,-0.41088685
2023-10-26 13:40:50.489,61969,118,0,-1775,-0.543460625,-1355,-0.414867125
2023-10-26 13:40:50.489,61970,204,53,-2067,-0.632863725,-1387,-0.424664725
2023-10-26 13:40:50.519,61971,119,0,-3209,-0.982515575,-1411,-0.432012925
2023-10-26 13:40:50.519,61972,203,51,-3553,-1.087839775,-1421,-0.435074675
2023-10-26 13:40:50.519,61973,117,0,-2262,-0.69256785,-1440,-0.440892
2023-10-26 13:40:50.519,61974,203,51,-1553,-0.475489775,-1475,-0.451608125
2023-10-26 13:40:50.519,61975,116,0,-1914,-0.58601895,-1504,-0.4604872
2023-10-26 13:40:50.519,61976,203,49,-2262,-0.69256785,-1522,-0.46599835
2023-10-26 13:40:50.519,61977,117,0,-1392,-0.4261956,-1550,-0.47457125
2023-10-26 13:40:50.549,61978,204,53,-1117,-0.341997475,-1587,-0.485899725
2023-10-26 13:40:50.549,61979,117,0,-2344,-0.7176742,-1605,-0.491410875
2023-10-26 13:40:50.549,61980,203,50,-2437,-0.746148475,-1608,-0.4923294
2023-10-26 13:40:50.549,61981,117,0,-1429,-0.437524075,-1617,-0.495084975
2023-10-26 13:40:50.549,61982,203,51,-1120,-0.342916,-1626,-0.49784055
2023-10-26 13:40:50.579,61983,117,0,-2122,-0.64970335,-1613,-0.493860275
2023-10-26 13:40:50.579,61984,201,51,-2419,-0.740637325,-1580,-0.4837565
2023-10-26 13:40:50.579,61985,116,0,-1360,-0.416398,-1551,-0.474877425
2023-10-26 13:40:50.619,61986,201,51,-788,-0.2412659,-1542,-0.47212185
2023-10-26 13:40:50.619,61987,116,0,-1465,-0.448546375,-1549,-0.474265075
2023-10-26 13:40:50.619,61988,203,50,-2120,-0.649091,-1579,-0.483450325
2023-10-26 13:40:50.619,61989,117,0,-1790,-0.54805325,-2107,-0.645110725
2023-10-26 13:40:50.619,61990,203,48,-1249,-0.382412575,-2386,-0.73053355
2023-10-26 13:40:50.619,61991,114,0,-1876,-0.5743843,-2379,-0.728390325
2023-10-26 13:40:50.649,61992,199,49,-2219,-0.679402325,-2366,-0.72441005
2023-10-26 13:40:50.649,61993,116,0,-1253,-0.383637275,-2358,-0.72196065
2023-10-26 13:40:50.649,61994,201,49,-969,-0.296683575,-2154,-0.65950095
2023-10-26 13:40:50.649,61995,114,0,-2105,-0.644498375,-1879,-0.575302825
2023-10-26 13:40:50.649,61996,199,47,-2328,-0.7127754,-1791,-0.548359425
2023-10-26 13:40:50.649,61997,116,0,-1518,-0.46477365,-1812,-0.5547891
2023-10-26 13:40:50.679,61998,199,48,-1300,-0.3980275,-1750,-0.53580625
2023-10-26 13:40:50.679,61999,116,0,-2075,-0.635313125,-1681,-0.514680175
2023-10-26 13:40:50.679,62000,199,48,-2327,-0.712469225,-1828,-0.5596879
2023-10-26 13:40:50.679,62001,114,0,-1609,-0.492635575,-2013,-0.616330275
2023-10-26 13:40:50.679,62002,198,47,-1147,-0.351182725,-1967,-0.602246225
2023-10-26 13:40:50.679,62003,117,0,-1750,-0.53580625,-1795,-0.549584125
2023-10-26 13:40:50.679,62004,196,46,-2221,-0.680014675,-1761,-0.539174175
2023-10-26 13:40:50.709,62005,117,0,-1440,-0.440892,-1697,-0.519578975
2023-10-26 13:40:50.709,62006,197,47,-841,-0.257493175,-1670,-0.51131225
2023-10-26 13:40:50.709,62007,117,0,-1554,-0.47579595,-1655,-0.506719625
2023-10-26 13:40:50.709,62008,196,46,-2169,-0.664093575,-1650,-0.50518875
2023-10-26 13:40:50.709,62009,117,0,-1554,-0.47579595,-1669,-0.511006075
2023-10-26 13:40:50.709,62010,194,46,-1132,-0.3465901,-1691,-0.517741925
2023-10-26 13:40:50.709,62011,119,0,-1991,-0.609594425,-1682,-0.51498635
2023-10-26 13:40:50.739,62012,194,43,-2195,-0.672054125,-1651,-0.505494925
2023-10-26 13:40:50.739,62013,117,0,-1594,-0.48804295,-1633,-0.499983775
2023-10-26 13:40:50.739,62014,195,45,-803,-0.245858525,-1636,-0.5009023
2023-10-26 13:40:50.739,62015,115,0,-1876,-0.5743843,-1647,-0.504270225
2023-10-26 13:40:50.739,62016,194,43,-2304,-0.7054272,-1664,-0.5094752
2023-10-26 13:40:50.769,62017,118,0,-1552,-0.4751836,-1695,-0.518966625
2023-10-26 13:40:50.769,62018,193,43,-1003,-0.307093525,-1732,-0.5302951
2023-10-26 13:40:50.769,62019,118,0,-1887,-0.577752225,-1750,-0.53580625
2023-10-26 13:40:50.769,62020,192,44,-2504,-0.7666622,-1749,-0.535500075
2023-10-26 13:40:50.769,62021,121,0,-1694,-0.51866045,-1754,-0.53703095
2023-10-26 13:40:50.769,62022,191,43,-1144,-0.3502642,-1759,-0.538561825
2023-10-26 13:40:50.769,62023,118,0,-2268,-0.6944049,-1739,-0.532438325
2023-10-26 13:40:50.799,62024,192,42,-2885,-0.883314875,-1701,-0.520803675
2023-10-26 13:40:50.799,62025,120,0,-1976,-0.6050018,-1681,-0.514680175
2023-10-26 13:40:50.799,62026,189,41,-1237,-0.378738475,-1678,-0.51376165
2023-10-26 13:40:50.799,62027,121,0,-2143,-0.656133025,-1668,-0.5106999
2023-10-26 13:40:50.799,62028,192,41,-2717,-0.831877475,-1650,-0.50518875
2023-10-26 13:40:50.799,62029,121,0,-1989,-0.608982075,-1642,-0.50273935
2023-10-26 13:40:50.829,62030,189,41,-1600,-0.48988,-1641,-0.502433175
2023-10-26 13:40:50.829,62031,120,0,-2544,-0.7789092,-1625,-0.497534375
2023-10-26 13:40:50.829,62032,189,42,-2873,-0.879640775,-1604,-0.4911047
2023-10-26 13:40:50.829,62033,123,0,-2213,-0.677565275,-1604,-0.4911047
2023-10-26 13:40:50.869,62034,189,43,-1591,-0.487124425,-1626,-0.49784055
2023-10-26 13:40:50.869,62035,123,0,-1987,-0.608369725,-1643,-0.503045525
2023-10-26 13:40:50.869,62036,187,40,-2827,-0.865556725,-1652,-0.5058011
2023-10-26 13:40:50.869,62037,123,0,-2452,-0.7507411,-1672,-0.5119246
2023-10-26 13:40:50.869,62038,189,39,-1853,-0.567342275,-1699,-0.520191325
2023-10-26 13:40:50.869,62039,123,0,-2228,-0.6821579,-1710,-0.52355925
2023-10-26 13:40:50.869,62040,187,37,-2728,-0.8352454,-1713,-0.524477775
2023-10-26 13:40:50.899,62041,124,0,-2360,-0.722573,-1740,-0.5327445
2023-10-26 13:40:50.899,62042,187,40,-1751,-0.536112425,-1787,-0.547134725
2023-10-26 13:40:50.899,62043,124,0,-2385,-0.730227375,-1821,-0.557544675
2023-10-26 13:40:50.899,62044,186,38,-2817,-0.862494975,-1844,-0.5645867
2023-10-26 13:40:50.899,62045,125,0,-2293,-0.702059275,-1883,-0.576527525
2023-10-26 13:40:50.899,62046,184,37,-1596,-0.4886553,-1938,-0.59336715
2023-10-26 13:40:50.929,62047,127,0,-2046,-0.62643405,-1983,-0.607145025
2023-10-26 13:40:50.929,62048,187,37,-2744,-0.8401442,-2013,-0.616330275
2023-10-26 13:40:50.929,62049,128,0,-2152,-0.6588886,-2053,-0.628577275
2023-10-26 13:40:50.929,62050,184,38,-1525,-0.466916875,-2102,-0.64357985
2023-10-26 13:40:50.929,62051,127,0,-2191,-0.670829425,-2132,-0.6527651
2023-10-26 13:40:50.929,62052,184,36,-2819,-0.863107325,-2137,-0.654295975
2023-10-26 13:40:50.929,62053,127,0,-2293,-0.702059275,-2154,-0.65950095
2023-10-26 13:40:50.929,62054,184,35,-1525,-0.466916875,-2192,-0.6711356
2023-10-26 13:40:50.929,62055,128,0,-2073,-0.634700775,-2222,-0.68032085
2023-10-26 13:40:50.959,62056,185,36,-2868,-0.8781099,-2229,-0.682464075
2023-10-26 13:40:50.959,62057,128,0,-2245,-0.687362875,-2236,-0.6846073
2023-10-26 13:40:50.959,62058,181,36,-1675,-0.512843125,-2254,-0.69011845
2023-10-26 13:40:50.959,62059,130,0,-2374,-0.72685945,-2263,-0.692874025
2023-10-26 13:40:50.959,62060,180,36,-2807,-0.859433225,-2262,-0.69256785
2023-10-26 13:40:50.959,62061,132,0,-2251,-0.689199925,-2274,-0.69624195
2023-10-26 13:40:50.959,62062,182,36,-1445,-0.442422875,-2297,-0.703283975
2023-10-26 13:40:50.989,62063,131,0,-2429,-0.743699075,-2307,-0.706345725
2023-10-26 13:40:50.989,62064,180,36,-3156,-0.9662883,-2292,-0.7017531
2023-10-26 13:40:50.989,62065,129,0,-2322,-0.71093835,-2274,-0.69624195
2023-10-26 13:40:50.989,62066,181,35,-1918,-0.58724365,-2265,-0.693486375
2023-10-26 13:40:50.989,62067,132,0,-2658,-0.81381315,-2252,-0.6895061
2023-10-26 13:40:50.989,62068,179,35,-3068,-0.9393449,-2234,-0.68399495
2023-10-26 13:40:50.989,62069,131,0,-2531,-0.774928925,-2228,-0.6821579
2023-10-26 13:40:50.989,62070,180,35,-1843,-0.564280525,-2232,-0.6833826
2023-10-26 13:40:50.989,62071,135,0,-2649,-0.811057575,-2220,-0.6797085
2023-10-26 13:40:51.019,62072,180,36,-3560,-1.089983,-2191,-0.670829425
2023-10-26 13:40:51.019,62073,134,0,-2604,-0.7972797,-2175,-0.665930625
2023-10-26 13:40:51.019,62074,180,35,-1907,-0.583875725,-2179,-0.667155325
2023-10-26 13:40:51.019,62075,134,0,-2614,-0.80034145,-2184,-0.6686862
2023-10-26 13:40:51.019,62076,178,34,-2953,-0.904134775,-2184,-0.6686862
2023-10-26 13:40:51.019,62077,134,0,-2606,-0.79789205,-2195,-0.672054125
2023-10-26 13:40:51.019,62078,177,34,-2071,-0.634088425,-2217,-0.678789975
2023-10-26 13:40:51.049,62079,134,0,-2874,-0.87994695,-2226,-0.68154555
2023-10-26 13:40:51.049,62080,178,35,-3233,-0.989863775,-2224,-0.6809332
2023-10-26 13:40:51.049,62081,134,0,-2636,-0.8070773,-2236,-0.6846073
2023-10-26 13:40:51.049,62082,178,37,-2147,-0.657357725,-2264,-0.6931802
2023-10-26 13:40:51.049,62083,134,0,-2891,-0.885151925,-2287,-0.700222225
2023-10-26 13:40:51.049,62084,177,35,-3232,-0.9895576,-2301,-0.704508675
2023-10-26 13:40:51.079,62085,135,0,-2769,-0.847798575,-2324,-0.7115507
2023-10-26 13:40:51.079,62086,176,35,-2164,-0.6625627,-2359,-0.722266825
2023-10-26 13:40:51.079,62087,135,0,-2710,-0.82973425,-2386,-0.73053355
2023-10-26 13:40:51.079,62088,174,35,-3398,-1.04038265,-2406,-0.73665705
2023-10-26 13:40:51.079,62089,137,0,-2741,-0.839225675,-2444,-0.7482917
2023-10-26 13:40:51.079,62090,174,34,-2064,-0.6319452,-2497,-0.764518975
2023-10-26 13:40:51.079,62091,137,0,-3010,-0.92158675,-2532,-0.7752351
2023-10-26 13:40:51.079,62092,175,34,-3526,-1.07957305,-2543,-0.778603025
2023-10-26 13:40:51.119,62093,137,0,-2769,-0.847798575,-2557,-0.782889475
2023-10-26 13:40:51.119,62094,173,35,-2106,-0.64480455,-2582,-0.79054385
2023-10-26 13:40:51.119,62095,138,0,-3110,-0.95220425,-2599,-0.795748825
2023-10-26 13:40:51.119,62096,175,35,-3400,-1.040995,-2604,-0.7972797
2023-10-26 13:40:51.119,62097,137,0,-2733,-0.836776275,-2616,-0.8009538
2023-10-26 13:40:51.119,62098,173,35,-2195,-0.672054125,-2637,-0.807383475
2023-10-26 13:40:51.149,62099,139,0,-2978,-0.91178915,-2645,-0.809832875
2023-10-26 13:40:51.149,62100,173,35,-3303,-1.011296025,-2637,-0.807383475
2023-10-26 13:40:51.149,62101,138,0,-2701,-0.826978675,-2642,-0.80891435
2023-10-26 13:40:51.149,62102,172,35,-2040,-0.624597,-2666,-0.81626255
2023-10-26 13:40:51.149,62103,137,0,-2729,-0.835551575,-2687,-0.822692225
2023-10-26 13:40:51.179,62104,172,34,-3487,-1.067632225,-2695,-0.825141625
2023-10-26 13:40:51.179,62105,137,0,-2975,-0.910870625,-2711,-0.830040425
2023-10-26 13:40:51.179,62106,169,34,-2282,-0.69869135,-2732,-0.8364701
2023-10-26 13:40:51.179,62107,141,0,-2864,-0.8768852,-2739,-0.838613325
2023-10-26 13:40:51.179,62108,170,34,-3401,-1.041301175,-2738,-0.83830715
2023-10-26 13:40:51.179,62109,140,0,-2732,-0.8364701,-2754,-0.84320595
2023-10-26 13:40:51.179,62110,168,33,-1958,-0.59949065,-2782,-0.85177885
2023-10-26 13:40:51.209,62111,140,0,-3006,-0.92036205,-2795,-0.855759125
2023-10-26 13:40:51.209,62112,170,32,-3425,-1.048649375,-2795,-0.855759125
2023-10-26 13:40:51.209,62113,140,0,-2772,-0.8487171,-2802,-0.85790235
2023-10-26 13:40:51.209,62114,169,33,-2156,-0.6601133,-2819,-0.863107325
2023-10-26 13:40:51.209,62115,141,0,-2651,-0.811669925,-2826,-0.86525055
2023-10-26 13:40:51.209,62116,168,32,-3607,-1.104373225,-2824,-0.8646382
2023-10-26 13:40:51.239,62117,142,0,-3123,-0.956184525,-2830,-0.86647525
2023-10-26 13:40:51.239,62118,168,31,-2304,-0.7054272,-2847,-0.871680225
2023-10-26 13:40:51.239,62119,141,0,-2741,-0.839225675,-2845,-0.871067875
2023-10-26 13:40:51.239,62120,168,31,-3287,-1.006397225,-2824,-0.8646382
2023-10-26 13:40:51.239,62121,142,0,-2619,-0.801872325,-2814,-0.86157645
2023-10-26 13:40:51.239,62122,165,32,-1895,-0.580201625,-2822,-0.86402585
2023-10-26 13:40:51.239,62123,143,0,-2464,-0.7544152,-2821,-0.863719675
2023-10-26 13:40:51.239,62124,166,30,-3100,-0.9491425,-2806,-0.85912705
2023-10-26 13:40:51.269,62125,144,0,-2707,-0.828815725,-2804,-0.8585147
2023-10-26 13:40:51.269,62126,166,30,-2071,-0.634088425,-2814,-0.86157645
2023-10-26 13:40:51.269,62127,146,0,-2489,-0.762069575,-2812,-0.8609641
2023-10-26 13:40:51.269,62128,165,31,-3094,-0.94730545,-2801,-0.857596175
2023-10-26 13:40:51.269,62129,145,0,-2527,-0.773704225,-2803,-0.858208525
2023-10-26 13:40:51.269,62130,165,29,-2001,-0.612656175,-2820,-0.8634135
2023-10-26 13:40:51.269,62131,146,0,-2528,-0.7740104,-2825,-0.864944375
2023-10-26 13:40:51.299,62132,164,28,-3085,-0.944549875,-2811,-0.860657925
2023-10-26 13:40:51.299,62133,146,0,-2739,-0.838613325,-2806,-0.85912705
2023-10-26 13:40:51.299,62134,165,28,-2101,-0.643273675,-2822,-0.86402585
2023-10-26 13:40:51.299,62135,148,0,-2646,-0.81013905,-2832,-0.8670876
2023-10-26 13:40:51.299,62136,164,29,-3219,-0.985577325,-2827,-0.865556725
2023-10-26 13:40:51.329,62137,147,0,-2644,-0.8095267,-2828,-0.8658629
2023-10-26 13:40:51.329,62138,162,26,-1983,-0.607145025,-2837,-0.868618475
2023-10-26 13:40:51.329,62139,149,0,-2535,-0.776153625,-2828,-0.8658629
2023-10-26 13:40:51.329,62140,162,27,-3123,-0.956184525,-2796,-0.8560653
2023-10-26 13:40:51.329,62141,149,0,-2835,-0.868006125,-2772,-0.8487171
2023-10-26 13:40:51.329,62142,162,25,-2327,-0.712469225,-2763,-0.845961525
2023-10-26 13:40:51.329,62143,148,0,-2488,-0.7617634,-2748,-0.8413689
2023-10-26 13:40:51.369,62144,162,26,-2863,-0.876579025,-2713,-0.830652775
2023-10-26 13:40:51.369,62145,150,0,-2205,-0.675115875,-2677,-0.819630475
2023-10-26 13:40:51.369,62146,160,24,-1363,-0.417316525,-2651,-0.811669925
2023-10-26 13:40:51.369,62147,151,0,-1542,-0.47212185,-2624,-0.8034032
2023-10-26 13:40:51.369,62148,162,24,-2413,-0.738800275,-2589,-0.792687075
2023-10-26 13:40:51.369,62149,151,0,-2720,-0.832796,-2569,-0.786563575
2023-10-26 13:40:51.399,62150,159,24,-2683,-0.821467525,-2569,-0.786563575
2023-10-26 13:40:51.399,62151,150,0,-3630,-1.11141525,-2570,-0.78686975
2023-10-26 13:40:51.399,62152,160,24,-4317,-1.321757475,-2563,-0.784726525
2023-10-26 13:40:51.399,62153,153,0,-3416,-1.0458938,-2567,-0.785951225
2023-10-26 13:40:51.399,62154,161,22,-2439,-0.746760825,-2587,-0.792074725
2023-10-26 13:40:51.429,62155,152,0,-2604,-0.7972797,-2603,-0.796973525
2023-10-26 13:40:51.429,62156,161,23,-2848,-0.8719864,-2604,-0.7972797
2023-10-26 13:40:51.429,62157,155,0,-2366,-0.72441005,-2610,-0.79911675
2023-10-26 13:40:51.429,62158,159,22,-1867,-0.571628725,-2627,-0.804321725
2023-10-26 13:40:51.429,62159,154,0,-2130,-0.65215275,-2636,-0.8070773
2023-10-26 13:40:51.429,62160,160,21,-2940,-0.9001545,-2630,-0.80524025
2023-10-26 13:40:51.459,62161,157,0,-2492,-0.7629881,-2624,-0.8034032
2023-10-26 13:40:51.459,62162,156,20,-1701,-0.520803675,-2622,-0.80279085
2023-10-26 13:40:51.459,62163,158,0,-2149,-0.657970075,-2599,-0.795748825
2023-10-26 13:40:51.459,62164,159,20,-2840,-0.869537,-2544,-0.7789092
2023-10-26 13:40:51.459,62165,157,0,-2487,-0.761457225,-2446,-0.74890405
2023-10-26 13:40:51.459,62166,159,20,-1711,-0.523865425,-2390,-0.73175825
2023-10-26 13:40:51.489,62167,156,0,-2047,-0.626740225,-2392,-0.7323706
2023-10-26 13:40:51.489,62168,158,17,-3005,-0.920055875,-2427,-0.743086725
2023-10-26 13:40:51.489,62169,157,0,-2231,-0.683076425,-2680,-0.820549
2023-10-26 13:40:51.489,62170,157,18,-1520,-0.465386,-3049,-0.933527575
2023-10-26 13:40:51.489,62171,160,0,-2092,-0.6405181,-3164,-0.9687377
2023-10-26 13:40:51.519,62172,158,18,-3004,-0.9197497,-3182,-0.97424885
2023-10-26 13:40:51.519,62173,158,0,-2291,-0.701446925,-3167,-0.969656225
2023-10-26 13:40:51.519,62174,156,17,-1292,-0.3955781,-2984,-0.9136262
2023-10-26 13:40:51.519,62175,158,0,-1945,-0.595510375,-2645,-0.809832875
2023-10-26 13:40:51.519,62176,157,17,-2633,-0.806158775,-2375,-0.727165625
2023-10-26 13:40:51.519,62177,162,0,-1917,-0.586937475,-2290,-0.70114075
2023-10-26 13:40:51.549,62178,158,16,-1285,-0.393434875,-2265,-0.693486375
2023-10-26 13:40:51.549,62179,159,0,-1750,-0.53580625,-2207,-0.675728225
2023-10-26 13:40:51.549,62180,158,15,-2421,-0.741249675,-2274,-0.69624195
2023-10-26 13:40:51.549,62181,162,0,-2033,-0.622453775,-2479,-0.759007825
2023-10-26 13:40:51.549,62182,156,14,-1095,-0.335261625,-2562,-0.78442035
2023-10-26 13:40:51.549,62183,162,0,-1373,-0.420378275,-2427,-0.743086725
2023-10-26 13:40:51.579,62184,156,15,-2169,-0.664093575,-2322,-0.71093835
2023-10-26 13:40:51.579,62185,162,0,-2013,-0.616330275,-2298,-0.70359015
2023-10-26 13:40:51.579,62186,157,14,-1208,-0.3698594,-2262,-0.69256785
2023-10-26 13:40:51.579,62187,164,0,-1667,-0.510393725,-2248,-0.6882814
2023-10-26 13:40:51.619,62188,155,15,-1884,-0.5768337,-2245,-0.687362875
2023-10-26 13:40:51.619,62189,166,0,-1355,-0.414867125,-2264,-0.6931802
2023-10-26 13:40:51.619,62190,156,13,-1003,-0.307093525,-2292,-0.7017531
2023-10-26 13:40:51.619,62191,165,0,-1440,-0.440892,-2293,-0.702059275
2023-10-26 13:40:51.619,62192,156,14,-1965,-0.601633875,-2257,-0.691036975
2023-10-26 13:40:51.619,62193,165,0,-1633,-0.499983775,-2213,-0.677565275
2023-10-26 13:40:51.619,62194,157,14,-887,-0.271577225,-2179,-0.667155325
2023-10-26 13:40:51.649,62195,167,0,-1256,-0.3845558,-2145,-0.656745375
2023-10-26 13:40:51.649,62196,154,13,-2274,-0.69624195,-2103,-0.643886025
2023-10-26 13:40:51.649,62197,167,0,-1824,-0.5584632,-2075,-0.635313125
2023-10-26 13:40:51.649,62198,157,11,-1146,-0.35087655,-2063,-0.631639025
2023-10-26 13:40:51.649,62199,168,0,-1452,-0.4445661,-2035,-0.623066125
2023-10-26 13:40:51.649,62200,155,10,-2126,-0.65092805,-1975,-0.604695625
2023-10-26 13:40:51.679,62201,168,0,-1821,-0.557544675,-1914,-0.58601895
2023-10-26 13:40:51.679,62202,155,9,-790,-0.24187825,-1877,-0.574690475
2023-10-26 13:40:51.679,62203,170,0,-1337,-0.409355975,-1844,-0.5645867
2023-10-26 13:40:51.679,62204,154,10,-2166,-0.66317505,-1802,-0.55172735
2023-10-26 13:40:51.709,62205,171,0,-1622,-0.49661585,-1765,-0.540398875
2023-10-26 13:40:51.709,62206,155,9,-1282,-0.39251635,-1739,-0.532438325
2023-10-26 13:40:51.709,62207,170,0,-1656,-0.5070258,-1710,-0.52355925
2023-10-26 13:40:51.709,62208,154,9,-2333,-0.714306275,-1670,-0.51131225
2023-10-26 13:40:51.709,62209,172,0,-1956,-0.5988783,-1635,-0.500596125
2023-10-26 13:40:51.709,62210,156,8,-1025,-0.313829375,-1615,-0.494472625
2023-10-26 13:40:51.709,62211,170,0,-1517,-0.464467475,-1592,-0.4874306
2023-10-26 13:40:51.739,62212,155,8,-2117,-0.648172475,-1555,-0.476102125
2023-10-26 13:40:51.739,62213,171,0,-1775,-0.543460625,-1526,-0.46722305
2023-10-26 13:40:51.739,62214,154,8,-1196,-0.3661853,-1519,-0.465079825
2023-10-26 13:40:51.739,62215,173,0,-1313,-0.402007775,-1516,-0.4641613
2023-10-26 13:40:51.739,62216,155,7,-1960,-0.600103,-1513,-0.463242775
2023-10-26 13:40:51.739,62217,171,0,-1941,-0.594285675,-1526,-0.46722305
2023-10-26 13:40:51.769,62218,154,6,-1013,-0.310155275,-1552,-0.4751836
2023-10-26 13:40:51.769,62219,174,0,-1105,-0.338323375,-1562,-0.47824535
2023-10-26 13:40:51.769,62220,155,7,-2093,-0.640824275,-1552,-0.4751836
2023-10-26 13:40:51.769,62221,176,0,-1917,-0.586937475,-1548,-0.4739589
2023-10-26 13:40:51.799,62222,153,5,-976,-0.2988268,-1564,-0.4788577
2023-10-26 13:40:51.799,62223,174,0,-1535,-0.469978625,-1584,-0.4849812
2023-10-26 13:40:51.799,62224,155,6,-2106,-0.64480455,-1593,-0.487736775
2023-10-26 13:40:51.799,62225,174,0,-1788,-0.5474409,-1605,-0.491410875
2023-10-26 13:40:51.799,62226,156,3,-973,-0.297908275,-1627,-0.498146725
2023-10-26 13:40:51.799,62227,176,0,-1537,-0.470590975,-1640,-0.502127
2023-10-26 13:40:51.799,62228,155,6,-2126,-0.65092805,-1635,-0.500596125
2023-10-26 13:40:51.829,62229,174,0,-1734,-0.53090745,-1633,-0.499983775
2023-10-26 13:40:51.829,62230,153,4,-1102,-0.33740485,-1649,-0.504882575
2023-10-26 13:40:51.829,62231,177,0,-1472,-0.4506896,-1664,-0.5094752
2023-10-26 13:40:51.829,62232,154,1,-2177,-0.666542975,-1663,-0.509169025
2023-10-26 13:40:51.829,62233,176,0,-1873,-0.573465775,-1662,-0.50886285
2023-10-26 13:40:51.829,62234,154,3,-1023,-0.313217025,-1671,-0.511618425
2023-10-26 13:40:51.869,62235,176,0,-1821,-0.557544675,-1669,-0.511006075
2023-10-26 13:40:51.869,62236,153,4,-2406,-0.73665705,-1642,-0.50273935
2023-10-26 13:40:51.869,62237,178,0,-1685,-0.515904875,-1616,-0.4947788
2023-10-26 13:40:51.869,62238,153,2,-1179,-0.360980325,-1607,-0.492023225
2023-10-26 13:40:51.869,62239,177,0,-1340,-0.4102745,-1597,-0.488961475
2023-10-26 13:40:51.869,62240,154,1,-2221,-0.680014675,-1576,-0.4825318
2023-10-26 13:40:51.869,62241,179,0,-1842,-0.56397435,-1563,-0.478551525
2023-10-26 13:40:51.899,62242,155,1,-1318,-0.40353865,-1567,-0.479776225
2023-10-26 13:40:51.899,62243,179,0,-1589,-0.486512075,-1573,-0.481613275
2023-10-26 13:40:51.899,62244,153,1,-2289,-0.700834575,-1572,-0.4813071
2023-10-26 13:40:51.899,62245,177,0,-1823,-0.558157025,-1575,-0.482225625
2023-10-26 13:40:51.899,62246,154,0,-1062,-0.32515785,-1589,-0.486512075
2023-10-26 13:40:51.899,62247,177,0,-1561,-0.477939175,-1601,-0.490186175
2023-10-26 13:40:51.899,62248,153,0,-2545,-0.779215375,-1599,-0.489573825
2023-10-26 13:40:51.929,62249,180,0,-2027,-0.620616725,-1599,-0.489573825
2023-10-26 13:40:51.929,62250,155,0,-860,-0.2633105,-1613,-0.493860275
2023-10-26 13:40:51.929,62251,181,0,-1559,-0.477326825,-1625,-0.497534375
2023-10-26 13:40:51.929,62252,154,0,-2367,-0.724716225,-1629,-0.498759075
2023-10-26 13:40:51.929,62253,179,0,-2198,-0.67297265,-1641,-0.502433175
2023-10-26 13:40:51.929,62254,155,0,-1233,-0.377513775,-1664,-0.5094752
2023-10-26 13:40:51.959,62255,181,0,-1491,-0.456506925,-1676,-0.5131493
2023-10-26 13:40:51.959,62256,155,0,-2218,-0.67909615,-1671,-0.511618425
2023-10-26 13:40:51.959,62257,181,0,-1962,-0.60071535,-1669,-0.511006075
2023-10-26 13:40:51.959,62258,153,0,-1274,-0.39006695,-1685,-0.515904875
2023-10-26 13:40:51.959,62259,181,0,-1407,-0.430788225,-1699,-0.520191325
2023-10-26 13:40:51.959,62260,152,0,-2202,-0.67419735,-1699,-0.520191325
2023-10-26 13:40:51.959,62261,182,0,-1836,-0.5621373,-1702,-0.52110985
2023-10-26 13:40:51.989,62262,155,0,-1376,-0.4212968,-1715,-0.525090125
2023-10-26 13:40:51.989,62263,182,0,-1719,-0.526314825,-1717,-0.525702475
2023-10-26 13:40:51.989,62264,155,0,-1971,-0.603470925,-1703,-0.521416025
2023-10-26 13:40:51.989,62265,183,0,-1745,-0.534275375,-1703,-0.521416025
2023-10-26 13:40:51.989,62266,153,0,-1215,-0.372002625,-1722,-0.52723335
2023-10-26 13:40:51.989,62267,182,0,-1547,-0.473652725,-1733,-0.530601275
2023-10-26 13:40:52.019,62268,154,0,-2256,-0.6907308,-1725,-0.528151875
2023-10-26 13:40:52.019,62269,184,0,-2009,-0.615105575,-1723,-0.527539525
2023-10-26 13:40:52.019,62270,155,0,-1126,-0.34475305,-1740,-0.5327445
2023-10-26 13:40:52.019,62271,183,0,-1466,-0.44885255,-1754,-0.53703095
2023-10-26 13:40:52.019,62272,153,0,-2333,-0.714306275,-1753,-0.536724775
2023-10-26 13:40:52.019,62273,185,0,-1895,-0.580201625,-1755,-0.537337125
2023-10-26 13:40:52.019,62274,154,0,-1096,-0.3355678,-1772,-0.5425421
2023-10-26 13:40:52.019,62275,182,0,-1331,-0.407518925,-1781,-0.545297675
2023-10-26 13:40:52.019,62276,153,0,-2320,-0.710326,-1764,-0.5400927
2023-10-26 13:40:52.049,62277,185,0,-2106,-0.64480455,-1747,-0.534887725
2023-10-26 13:40:52.049,62278,155,0,-1260,-0.3857805,-1751,-0.536112425
2023-10-26 13:40:52.049,62279,185,0,-1495,-0.457731625,-1759,-0.538561825
2023-10-26 13:40:52.049,62280,154,0,-2201,-0.673891175,-1754,-0.53703095
2023-10-26 13:40:52.049,62281,183,0,-1949,-0.596735075,-1742,-0.53335685
2023-10-26 13:40:52.049,62282,153,0,-1343,-0.411193025,-1738,-0.53213215
2023-10-26 13:40:52.049,62283,185,0,-1436,-0.4396673,-1733,-0.530601275
2023-10-26 13:40:52.079,62284,152,0,-2020,-0.6184735,-1717,-0.525702475
2023-10-26 13:40:52.079,62285,186,0,-1722,-0.52723335,-1707,-0.522640725
2023-10-26 13:40:52.079,62286,153,0,-1133,-0.346896275,-1711,-0.523865425
2023-10-26 13:40:52.079,62287,185,0,-1705,-0.522028375,-1713,-0.524477775
2023-10-26 13:40:52.079,62288,153,0,-2079,-0.636537825,-1704,-0.5217222
2023-10-26 13:40:52.119,62289,187,0,-1947,-0.596122725,-1702,-0.52110985
2023-10-26 13:40:52.119,62290,152,0,-1167,-0.357306225,-1713,-0.524477775
2023-10-26 13:40:52.119,62291,186,0,-1332,-0.4078251,-1715,-0.525090125
2023-10-26 13:40:52.119,62292,152,0,-2174,-0.66562445,-1704,-0.5217222
2023-10-26 13:40:52.119,62293,186,0,-1904,-0.5829572,-1700,-0.5204975
2023-10-26 13:40:52.119,62294,151,0,-1312,-0.4017016,-1714,-0.52478395
2023-10-26 13:40:52.119,62295,185,0,-1313,-0.402007775,-1722,-0.52723335
2023-10-26 13:40:52.119,62296,152,0,-1839,-0.563055825,-1713,-0.524477775
2023-10-26 13:40:52.149,62297,187,0,-1952,-0.5976536,-1708,-0.5229469
2023-10-26 13:40:52.149,62298,151,0,-1110,-0.33985425,-1721,-0.526927175
2023-10-26 13:40:52.149,62299,187,0,-1296,-0.3968028,-1737,-0.531825975
2023-10-26 13:40:52.149,62300,151,0,-1902,-0.58234485,-1734,-0.53090745
2023-10-26 13:40:52.149,62301,187,0,-1871,-0.572853425,-1725,-0.528151875
2023-10-26 13:40:52.149,62302,151,0,-1168,-0.3576124,-1725,-0.528151875
2023-10-26 13:40:52.179,62303,187,0,-1251,-0.383024925,-1723,-0.527539525
2023-10-26 13:40:52.179,62304,150,0,-2010,-0.61541175,-1709,-0.523253075
2023-10-26 13:40:52.179,62305,187,0,-2064,-0.6319452,-1696,-0.5192728
2023-10-26 13:40:52.179,62306,149,0,-1589,-0.486512075,-1698,-0.51988515
2023-10-26 13:40:52.179,62307,188,0,-1663,-0.509169025,-1699,-0.520191325
2023-10-26 13:40:52.179,62308,149,0,-2467,-0.755333725,-1686,-0.51621105
2023-10-26 13:40:52.179,62309,189,0,-2350,-0.71951125,-1674,-0.51253695
2023-10-26 13:40:52.179,62310,149,0,-1345,-0.411805375,-1674,-0.51253695
2023-10-26 13:40:52.209,62311,186,0,-1579,-0.483450325,-1673,-0.512230775
2023-10-26 13:40:52.209,62312,147,0,-2409,-0.737575575,-1660,-0.5082505
2023-10-26 13:40:52.209,62313,188,0,-2156,-0.6601133,-1649,-0.504882575
2023-10-26 13:40:52.209,62314,148,0,-1355,-0.414867125,-1654,-0.50641345
2023-10-26 13:40:52.209,62315,188,0,-1733,-0.530601275,-1655,-0.506719625
2023-10-26 13:40:52.209,62316,148,0,-2352,-0.7201236,-1640,-0.502127
2023-10-26 13:40:52.209,62317,190,0,-1823,-0.558157025,-1625,-0.497534375
2023-10-26 13:40:52.239,62318,148,0,-1207,-0.369553225,-1622,-0.49661585
2023-10-26 13:40:52.239,62319,190,0,-1285,-0.393434875,-1619,-0.495697325
2023-10-26 13:40:52.239,62320,149,0,-2002,-0.61296235,-1600,-0.48988
2023-10-26 13:40:52.239,62321,190,0,-1576,-0.4825318,-1580,-0.4837565
2023-10-26 13:40:52.239,62322,146,0,-1019,-0.311992325,-1580,-0.4837565
2023-10-26 13:40:52.269,62323,189,0,-1935,-0.592448625,-1593,-0.487736775
2023-10-26 13:40:52.269,62324,146,0,-3138,-0.96077715,-1608,-0.4923294
2023-10-26 13:40:52.269,62325,191,0,-3198,-0.97914765,-1632,-0.4996776
2023-10-26 13:40:52.269,62326,148,0,-2659,-0.814119325,-1675,-0.512843125
2023-10-26 13:40:52.269,62327,192,0,-2484,-0.7605387,-1718,-0.52600865
2023-10-26 13:40:52.269,62328,148,0,-2801,-0.857596175,-1748,-0.5351939
2023-10-26 13:40:52.269,62329,191,0,-2570,-0.78686975,-1780,-0.5449915
2023-10-26 13:40:52.269,62330,147,0,-1414,-0.43293145,-1823,-0.558157025
2023-10-26 13:40:52.299,62331,189,0,-1463,-0.447934025,-1861,-0.569791675
2023-10-26 13:40:52.299,62332,145,0,-2386,-0.73053355,-1884,-0.5768337
2023-10-26 13:40:52.299,62333,190,0,-2224,-0.6809332,-1899,-0.581426325
2023-10-26 13:40:52.299,62334,146,0,-1394,-0.42680795,-1912,-0.5854066
2023-10-26 13:40:52.299,62335,192,0,-1468,-0.4494649,-1911,-0.585100425
2023-10-26 13:40:52.299,62336,147,0,-2390,-0.73175825,-1885,-0.577139875
2023-10-26 13:40:52.329,62337,191,0,-2011,-0.615717925,-1851,-0.566729925
2023-10-26 13:40:52.329,62338,148,0,-1301,-0.398333675,-1821,-0.557544675
2023-10-26 13:40:52.329,62339,190,0,-1550,-0.47457125,-1786,-0.54682855
2023-10-26 13:40:52.329,62340,145,0,-2568,-0.7862574,-1747,-0.534887725
2023-10-26 13:40:52.329,62341,194,1,-2215,-0.678177625,-1734,-0.53090745
2023-10-26 13:40:52.369,62342,147,0,-1294,-0.39619045,-1768,-0.5413174
2023-10-26 13:40:52.369,62343,192,1,-1527,-0.467529225,-2148,-0.6576639
2023-10-26 13:40:52.369,62344,146,0,-2269,-0.694711075,-2395,-0.733289125
2023-10-26 13:40:52.369,62345,190,2,-2182,-0.66807385,-2606,-0.79789205
2023-10-26 13:40:52.369,62346,148,0,-1526,-0.46722305,-2695,-0.825141625
2023-10-26 13:40:52.369,62347,194,2,-1680,-0.514374,-2517,-0.770642475
2023-10-26 13:40:52.399,62348,147,0,-2559,-0.783501825,-2264,-0.6931802
2023-10-26 13:40:52.399,62349,193,4,-1990,-0.60928825,-2144,-0.6564392
2023-10-26 13:40:52.399,62350,148,0,-1286,-0.39374105,-2072,-0.6343946
2023-10-26 13:40:52.399,62351,193,3,-1728,-0.5290704,-1934,-0.59214245
2023-10-26 13:40:52.399,62352,148,0,-2323,-0.711244525,-1777,-0.544072975
2023-10-26 13:40:52.399,62353,192,4,-2326,-0.71216305,-1831,-0.560606425
2023-10-26 13:40:52.429,62354,149,0,-1544,-0.4727342,-1948,-0.5964289
2023-10-26 13:40:52.429,62355,195,3,-1648,-0.5045764,-1939,-0.593673325
2023-10-26 13:40:52.429,62356,150,0,-2272,-0.6956296,-1921,-0.588162175
2023-10-26 13:40:52.429,62357,193,6,-2389,-0.731452075,-1963,-0.601021525
2023-10-26 13:40:52.429,62358,150,0,-1606,-0.49171705,-1902,-0.58234485
2023-10-26 13:40:52.459,62359,193,5,-1581,-0.484062675,-1861,-0.569791675
2023-10-26 13:40:52.459,62360,152,0,-2319,-0.710019825,-1823,-0.558157025
2023-10-26 13:40:52.459,62361,195,6,-2305,-0.705733375,-1806,-0.55295205
2023-10-26 13:40:52.459,62362,151,0,-1561,-0.477939175,-1826,-0.55907555
2023-10-26 13:40:52.459,62363,194,7,-1614,-0.49416645,-1860,-0.5694855
2023-10-26 13:40:52.459,62364,151,0,-2292,-0.7017531,-1880,-0.575609
2023-10-26 13:40:52.489,62365,193,5,-1956,-0.5988783,-1892,-0.5792831
2023-10-26 13:40:52.489,62366,151,0,-1413,-0.432625275,-1903,-0.582651025
2023-10-26 13:40:52.489,62367,196,5,-1775,-0.543460625,-1901,-0.582038675
2023-10-26 13:40:52.489,62368,152,0,-2408,-0.7372694,-1882,-0.57622135
2023-10-26 13:40:52.489,62369,194,7,-2142,-0.65582685,-1872,-0.5731596
2023-10-26 13:40:52.489,62370,152,0,-1405,-0.430175875,-1889,-0.578364575
2023-10-26 13:40:52.519,62371,195,8,-1694,-0.51866045,-1915,-0.586325125
2023-10-26 13:40:52.519,62372,153,0,-2196,-0.6723603,-1923,-0.588774525
2023-10-26 13:40:52.519,62373,197,10,-2159,-0.661031825,-1924,-0.5890807
2023-10-26 13:40:52.519,62374,154,0,-1678,-0.51376165,-1933,-0.591836275
2023-10-26 13:40:52.519,62375,195,7,-1783,-0.545910025,-1940,-0.5939795
2023-10-26 13:40:52.519,62376,153,0,-2629,-0.804934075,-1932,-0.5915301
2023-10-26 13:40:52.519,62377,197,7,-2541,-0.777990675,-1929,-0.590611575
2023-10-26 13:40:52.549,62378,156,0,-1720,-0.526621,-1947,-0.596122725
2023-10-26 13:40:52.549,62379,196,11,-1979,-0.605920325,-1964,-0.6013277
2023-10-26 13:40:52.549,62380,155,0,-2615,-0.800647625,-1962,-0.60071535
2023-10-26 13:40:52.549,62381,197,9,-2513,-0.769417775,-1953,-0.597959775
2023-10-26 13:40:52.549,62382,155,0,-1740,-0.5327445,-1951,-0.597347425
2023-10-26 13:40:52.549,62383,196,8,-2024,-0.6196982,-1949,-0.596735075
2023-10-26 13:40:52.549,62384,156,0,-2828,-0.8658629,-1938,-0.59336715
2023-10-26 13:40:52.579,62385,197,10,-2652,-0.8119761,-1928,-0.5903054
2023-10-26 13:40:52.579,62386,156,0,-1960,-0.600103,-1926,-0.58969305
2023-10-26 13:40:52.579,62387,198,11,-1845,-0.564892875,-1921,-0.588162175
2023-10-26 13:40:52.579,62388,156,0,-2591,-0.793299425,-1906,-0.58356955
2023-10-26 13:40:52.579,62389,198,10,-2588,-0.7923809,-1891,-0.578976925
2023-10-26 13:40:52.579,62390,158,0,-1835,-0.561831125,-1894,-0.57989545
2023-10-26 13:40:52.624,62391,200,11,-1745,-0.534275375,-1903,-0.582651025
2023-10-26 13:40:52.624,62392,156,0,-2428,-0.7433929,-1906,-0.58356955
2023-10-26 13:40:52.624,62393,198,13,-2461,-0.753496675,-1916,-0.5866313
2023-10-26 13:40:52.624,62394,156,0,-1503,-0.460181025,-1944,-0.5952042
2023-10-26 13:40:52.624,62395,197,13,-1711,-0.523865425,-1970,-0.60316475
2023-10-26 13:40:52.624,62396,157,0,-2410,-0.73788175,-1985,-0.607757375
2023-10-26 13:40:52.624,62397,198,13,-2423,-0.741862025,-2009,-0.615105575
2023-10-26 13:40:52.656,62398,156,0,-1810,-0.55417675,-2053,-0.628577275
2023-10-26 13:40:52.656,62399,200,13,-1654,-0.50641345,-2097,-0.642048975
2023-10-26 13:40:52.656,62400,155,0,-2535,-0.776153625,-2127,-0.651234225
2023-10-26 13:40:52.656,62401,197,13,-2240,-0.685832,-2155,-0.659807125
2023-10-26 13:40:52.657,62402,156,0,-1611,-0.493247925,-2191,-0.670829425
2023-10-26 13:40:52.657,62403,198,13,-1929,-0.590611575,-2222,-0.68032085
2023-10-26 13:40:52.688,62404,157,0,-2525,-0.773091875,-2235,-0.684301125
2023-10-26 13:40:52.688,62405,199,14,-2203,-0.674503525,-2244,-0.6870567
2023-10-26 13:40:52.688,62406,156,0,-1401,-0.428951175,-2268,-0.6944049
2023-10-26 13:40:52.688,62407,201,13,-1513,-0.463242775,-2288,-0.7005284
2023-10-26 13:40:52.688,62408,157,0,-2534,-0.77584745,-2282,-0.69869135
2023-10-26 13:40:52.716,62409,199,13,-2549,-0.780440075,-2264,-0.6931802
2023-10-26 13:40:52.716,62410,158,0,-1766,-0.54070505,-2252,-0.6895061
2023-10-26 13:40:52.716,62411,199,15,-1708,-0.5229469,-2235,-0.684301125
2023-10-26 13:40:52.716,62412,158,0,-2623,-0.803097025,-2202,-0.67419735
2023-10-26 13:40:52.716,62413,200,13,-2656,-0.8132008,-2170,-0.66439975
2023-10-26 13:40:52.716,62414,159,0,-1639,-0.501820825,-2155,-0.659807125
2023-10-26 13:40:52.716,62415,200,14,-1662,-0.50886285,-2146,-0.65705155
2023-10-26 13:40:52.749,62416,158,0,-2630,-0.80524025,-2123,-0.650009525
2023-10-26 13:40:52.749,62417,198,15,-2558,-0.78319565,-2095,-0.641436625
2023-10-26 13:40:52.749,62418,160,0,-1760,-0.538868,-2077,-0.635925475
2023-10-26 13:40:52.749,62419,202,14,-1746,-0.53458155,-2066,-0.63255755
2023-10-26 13:40:52.749,62420,158,0,-2478,-0.75870165,-2054,-0.62888345
2023-10-26 13:40:52.749,62421,201,16,-2514,-0.76972395,-2049,-0.627352575
2023-10-26 13:40:52.780,62422,159,0,-1542,-0.47212185,-2059,-0.630414325
2023-10-26 13:40:52.780,62423,202,15,-1395,-0.427114125,-2065,-0.632251375
2023-10-26 13:40:52.780,62424,159,0,-2487,-0.761457225,-2052,-0.6282711
2023-10-26 13:40:52.780,62425,202,16,-2686,-0.82238605,-2036,-0.6233723
2023-10-26 13:40:52.780,62426,158,0,-1703,-0.521416025,-2038,-0.62398465
2023-10-26 13:40:52.816,62427,203,19,-1687,-0.516517225,-2044,-0.6258217
2023-10-26 13:40:52.816,62428,158,0,-2369,-0.725328575,-2038,-0.62398465
2023-10-26 13:40:52.816,62429,203,16,-2249,-0.688587575,-2036,-0.6233723
2023-10-26 13:40:52.816,62430,159,0,-1609,-0.492635575,-2055,-0.629189625
2023-10-26 13:40:52.816,62431,204,18,-1575,-0.482225625,-2072,-0.6343946
2023-10-26 13:40:52.816,62432,160,0,-2427,-0.743086725,-2072,-0.6343946
2023-10-26 13:40:52.848,62433,203,17,-2439,-0.746760825,-2076,-0.6356193
2023-10-26 13:40:52.848,62434,160,0,-1737,-0.531825975,-2101,-0.643273675
2023-10-26 13:40:52.848,62435,203,18,-1479,-0.452832825,-2130,-0.65215275
2023-10-26 13:40:52.848,62436,161,0,-2382,-0.72930885,-2139,-0.654908325
2023-10-26 13:40:52.848,62437,204,18,-2520,-0.771561,-2137,-0.654295975
2023-10-26 13:40:52.848,62438,158,0,-2020,-0.6184735,-2146,-0.65705155
2023-10-26 13:40:52.880,62439,204,17,-1904,-0.5829572,-2153,-0.659194775
2023-10-26 13:40:52.880,62440,157,0,-2339,-0.716143325,-2139,-0.654908325
2023-10-26 13:40:52.880,62441,204,19,-2397,-0.733901475,-2118,-0.64847865
2023-10-26 13:40:52.880,62442,159,0,-1589,-0.486512075,-2115,-0.647560125
2023-10-26 13:40:52.880,62443,203,19,-1620,-0.4960035,-2115,-0.647560125
2023-10-26 13:40:52.880,62444,160,0,-2477,-0.758395475,-2097,-0.642048975
2023-10-26 13:40:52.880,62445,204,17,-2556,-0.7825833,-2073,-0.634700775
2023-10-26 13:40:52.915,62446,160,0,-1802,-0.55172735,-2063,-0.631639025
2023-10-26 13:40:52.915,62447,206,18,-1746,-0.53458155,-2061,-0.631026675
2023-10-26 13:40:52.915,62448,161,0,-2384,-0.7299212,-2049,-0.627352575
2023-10-26 13:40:52.915,62449,206,20,-2423,-0.741862025,-2035,-0.623066125
2023-10-26 13:40:52.915,62450,160,0,-1466,-0.44885255,-2037,-0.623678475
2023-10-26 13:40:52.915,62451,205,20,-1217,-0.372614975,-2043,-0.625515525
2023-10-26 13:40:52.915,62452,160,0,-2063,-0.631639025,-2031,-0.621841425
2023-10-26 13:40:52.949,62453,208,19,-2259,-0.691649325,-2012,-0.6160241
2023-10-26 13:40:52.949,62454,158,0,-1659,-0.507944325,-2012,-0.6160241
2023-10-26 13:40:52.949,62455,210,19,-1400,-0.428645,-2029,-0.621229075
2023-10-26 13:40:52.949,62456,158,0,-2232,-0.6833826,-2042,-0.62520935
2023-10-26 13:40:52.949,62457,209,22,-2041,-0.624903175,-2052,-0.6282711
2023-10-26 13:40:52.949,62458,157,0,-1518,-0.46477365,-2068,-0.6331699
2023-10-26 13:40:52.972,62459,208,22,-1529,-0.468141575,-2081,-0.637150175
2023-10-26 13:40:52.972,62460,160,0,-2262,-0.69256785,-2077,-0.635925475
2023-10-26 13:40:52.972,62461,209,21,-2142,-0.65582685,-2071,-0.634088425
2023-10-26 13:40:52.972,62462,158,0,-1653,-0.506107275,-2083,-0.637762525
2023-10-26 13:40:52.972,62463,208,24,-1425,-0.436299375,-2103,-0.643886025
2023-10-26 13:40:52.972,62464,157,0,-2146,-0.65705155,-2109,-0.645723075
2023-10-26 13:40:52.972,62465,211,22,-1963,-0.601021525,-2105,-0.644498375
2023-10-26 13:40:53.016,62466,157,0,-1460,-0.4470155,-2103,-0.643886025
2023-10-26 13:40:53.016,62467,210,22,-1442,-0.44150435,-2094,-0.64113045
2023-10-26 13:40:53.016,62468,156,0,-2274,-0.69624195,-2066,-0.63255755
2023-10-26 13:40:53.016,62469,212,24,-2218,-0.67909615,-2034,-0.62275995
2023-10-26 13:40:53.016,62470,154,0,-1224,-0.3747582,-2017,-0.617554975
2023-10-26 13:40:53.016,62471,211,23,-1065,-0.326076375,-2003,-0.613268525
2023-10-26 13:40:53.062,62472,156,0,-1858,-0.56887315,-1972,-0.6037771
2023-10-26 13:40:53.062,62473,214,22,-2026,-0.62031055,-1934,-0.59214245
2023-10-26 13:40:53.062,62474,154,0,-1306,-0.39986455,-1909,-0.584488075
2023-10-26 13:40:53.062,62475,212,23,-1157,-0.354244475,-1893,-0.579589275
2023-10-26 13:40:53.062,62476,156,0,-1870,-0.57254725,-1872,-0.5731596
2023-10-26 13:40:53.062,62477,215,23,-2033,-0.622453775,-1850,-0.56642375
2023-10-26 13:40:53.062,62478,154,0,-1233,-0.377513775,-1844,-0.5645867
2023-10-26 13:40:53.062,62479,215,23,-1287,-0.394047225,-1845,-0.564892875
2023-10-26 13:40:53.062,62480,153,0,-2155,-0.659807125,-1837,-0.562443475
2023-10-26 13:40:53.093,62481,213,25,-1823,-0.558157025,-1826,-0.55907555
2023-10-26 13:40:53.093,62482,154,0,-1262,-0.38639285,-1827,-0.559381725
2023-10-26 13:40:53.093,62483,215,23,-1230,-0.37659525,-1835,-0.561831125
2023-10-26 13:40:53.093,62484,153,0,-1766,-0.54070505,-1836,-0.5621373
2023-10-26 13:40:53.093,62485,216,22,-1974,-0.60438945,-1836,-0.5621373
2023-10-26 13:40:53.093,62486,153,0,-1507,-0.461405725,-1843,-0.564280525
2023-10-26 13:40:53.093,62487,215,24,-1329,-0.406906575,-1837,-0.562443475
2023-10-26 13:40:53.123,62488,151,0,-2033,-0.622453775,-1806,-0.55295205
2023-10-26 13:40:53.123,62489,217,23,-1854,-0.56764845,-1769,-0.541623575
2023-10-26 13:40:53.123,62490,152,0,-1073,-0.328525775,-1750,-0.53580625
2023-10-26 13:40:53.123,62491,217,23,-1021,-0.312604675,-1739,-0.532438325
2023-10-26 13:40:53.123,62492,149,0,-1688,-0.5168234,-1717,-0.525702475
2023-10-26 13:40:53.153,62493,219,24,-1625,-0.497534375,-1690,-0.51743575
2023-10-26 13:40:53.153,62494,149,0,-797,-0.244021475,-1674,-0.51253695
2023-10-26 13:40:53.153,62495,220,23,-779,-0.238510325,-1657,-0.507331975
2023-10-26 13:40:53.153,62496,147,0,-2208,-0.6760344,-1629,-0.498759075
2023-10-26 13:40:53.153,62497,218,26,-2918,-0.89341865,-1605,-0.491410875
2023-10-26 13:40:53.153,62498,148,0,-2364,-0.7237977,-1603,-0.490798525
2023-10-26 13:40:53.153,62499,219,26,-2116,-0.6478663,-1612,-0.4935541
2023-10-26 13:40:53.153,62500,147,0,-2645,-0.809832875,-1609,-0.492635575
2023-10-26 13:40:53.193,62501,219,26,-2327,-0.712469225,-1598,-0.48926765
2023-10-26 13:40:53.193,62502,146,0,-1290,-0.39496575,-1597,-0.488961475
2023-10-26 13:40:53.193,62503,219,25,-1433,-0.438748775,-1605,-0.491410875
2023-10-26 13:40:53.193,62504,146,0,-2011,-0.615717925,-1608,-0.4923294
2023-10-26 13:40:53.193,62505,222,26,-1928,-0.5903054,-1611,-0.493247925
2023-10-26 13:40:53.193,62506,146,0,-1445,-0.442422875,-1623,-0.496922025
2023-10-26 13:40:53.193,62507,220,27,-1481,-0.453445175,-1631,-0.499371425
2023-10-26 13:40:53.193,62508,145,0,-2132,-0.6527651,-1615,-0.494472625
2023-10-26 13:40:53.193,62509,220,27,-2057,-0.629801975,-1591,-0.487124425
2023-10-26 13:40:53.193,62510,145,0,-1294,-0.39619045,-1573,-0.481613275
2023-10-26 13:40:53.223,62511,221,26,-1156,-0.3539383,-1551,-0.474877425
2023-10-26 13:40:53.223,62512,146,0,-2112,-0.6466416,-1515,-0.463855125
2023-10-26 13:40:53.223,62513,222,26,-2067,-0.632863725,-1488,-0.4555884
2023-10-26 13:40:53.223,62514,145,0,-1182,-0.36189885,-1497,-0.458343975
2023-10-26 13:40:53.223,62515,221,26,-1161,-0.355469175,-1558,-0.47702065
2023-10-26 13:40:53.223,62516,145,0,-1899,-0.581426325,-1812,-0.5547891
2023-10-26 13:40:53.223,62517,220,28,-2036,-0.6233723,-2069,-0.633476075
2023-10-26 13:40:53.223,62518,143,0,-1293,-0.395884275,-2240,-0.685832
2023-10-26 13:40:53.223,62519,222,28,-1269,-0.388536075,-2184,-0.6686862
2023-10-26 13:40:53.223,62520,142,0,-2006,-0.61418705,-2050,-0.62765875
2023-10-26 13:40:53.253,62521,222,29,-2167,-0.663481225,-1973,-0.604083275
2023-10-26 13:40:53.253,62522,140,0,-1399,-0.428338825,-1889,-0.578364575
2023-10-26 13:40:53.253,62523,220,27,-1244,-0.3808817,-1798,-0.55050265
2023-10-26 13:40:53.253,62524,143,0,-2227,-0.681851725,-1762,-0.53948035
2023-10-26 13:40:53.253,62525,223,27,-2153,-0.659194775,-1756,-0.5376433
2023-10-26 13:40:53.253,62526,140,0,-1356,-0.4151733,-1822,-0.55785085
2023-10-26 13:40:53.293,62527,222,30,-1059,-0.324239325,-1826,-0.55907555
2023-10-26 13:40:53.293,62528,141,0,-2180,-0.6674615,-1799,-0.550808825
2023-10-26 13:40:53.293,62529,222,28,-2203,-0.674503525,-1809,-0.553870575
2023-10-26 13:40:53.293,62530,142,0,-1509,-0.462018075,-1768,-0.5413174
2023-10-26 13:40:53.293,62531,222,29,-1107,-0.338935725,-1726,-0.52845805
2023-10-26 13:40:53.293,62532,140,0,-2294,-0.70236545,-1676,-0.5131493
2023-10-26 13:40:53.293,62533,221,27,-2548,-0.7801339,-1639,-0.501820825
2023-10-26 13:40:53.293,62534,140,0,-1442,-0.44150435,-1635,-0.500596125
2023-10-26 13:40:53.333,62535,222,28,-1206,-0.36924705,-1649,-0.504882575
2023-10-26 13:40:53.333,62536,138,0,-2017,-0.617554975,-1654,-0.50641345
2023-10-26 13:40:53.333,62537,218,29,-2405,-0.736350875,-1653,-0.506107275
2023-10-26 13:40:53.333,62538,139,0,-1556,-0.4764083,-1658,-0.50763815
2023-10-26 13:40:53.333,62539,221,30,-1419,-0.434462325,-1658,-0.50763815
2023-10-26 13:40:53.333,62540,140,0,-2032,-0.6221476,-1640,-0.502127
2023-10-26 13:40:53.333,62541,220,29,-2213,-0.677565275,-1626,-0.49784055
2023-10-26 13:40:53.333,62542,138,0,-1454,-0.44517845,-1640,-0.502127
2023-10-26 13:40:53.363,62543,220,30,-1506,-0.46109955,-1669,-0.511006075
2023-10-26 13:40:53.363,62544,138,0,-2477,-0.758395475,-1687,-0.516517225
2023-10-26 13:40:53.363,62545,218,30,-2465,-0.754721375,-1698,-0.51988515
2023-10-26 13:40:53.363,62546,139,0,-1654,-0.50641345,-1718,-0.52600865
2023-10-26 13:40:53.363,62547,219,30,-1469,-0.449771075,-1734,-0.53090745
2023-10-26 13:40:53.403,62548,139,0,-2450,-0.75012875,-1728,-0.5290704
2023-10-26 13:40:53.403,62549,217,30,-2719,-0.832489825,-1721,-0.526927175
2023-10-26 13:40:53.403,62550,137,0,-1875,-0.574078125,-1738,-0.53213215
2023-10-26 13:40:53.403,62551,220,31,-1514,-0.46354895,-1763,-0.539786525
2023-10-26 13:40:53.403,62552,137,0,-2680,-0.820549,-1770,-0.54192975
2023-10-26 13:40:53.403,62553,217,31,-2931,-0.897398925,-1768,-0.5413174
2023-10-26 13:40:53.403,62554,138,0,-2186,-0.66929855,-1782,-0.54560385
2023-10-26 13:40:53.433,62555,217,30,-1759,-0.538561825,-1804,-0.5523397
2023-10-26 13:40:53.433,62556,139,0,-2426,-0.74278055,-1810,-0.55417675
2023-10-26 13:40:53.433,62557,217,33,-2973,-0.910258275,-1805,-0.552645875
2023-10-26 13:40:53.433,62558,137,0,-2242,-0.68644435,-1812,-0.5547891
2023-10-26 13:40:53.433,62559,218,32,-1656,-0.5070258,-1826,-0.55907555
2023-10-26 13:40:53.433,62560,136,0,-2595,-0.794524125,-1829,-0.559994075
2023-10-26 13:40:53.473,62561,216,33,-2793,-0.855146775,-1827,-0.559381725
2023-10-26 13:40:53.473,62562,137,0,-2248,-0.6882814,-1843,-0.564280525
2023-10-26 13:40:53.473,62563,216,32,-1999,-0.612043825,-1867,-0.571628725
2023-10-26 13:40:53.473,62564,137,0,-2661,-0.814731675,-1880,-0.575609
2023-10-26 13:40:53.503,62565,213,35,-2926,-0.89586805,-1888,-0.5780584
2023-10-26 13:40:53.503,62566,136,0,-2117,-0.648172475,-1914,-0.58601895
2023-10-26 13:40:53.503,62567,219,34,-2045,-0.626127875,-1949,-0.596735075
2023-10-26 13:40:53.503,62568,134,0,-2601,-0.796361175,-1975,-0.604695625
2023-10-26 13:40:53.503,62569,215,35,-3024,-0.9258732,-2001,-0.612656175
2023-10-26 13:40:53.503,62570,134,0,-2253,-0.689812275,-2051,-0.627964925
2023-10-26 13:40:53.503,62571,217,34,-1905,-0.583263375,-2107,-0.645110725
2023-10-26 13:40:53.543,62572,134,0,-2640,-0.808302,-2142,-0.65582685
2023-10-26 13:40:53.543,62573,215,36,-3014,-0.92281145,-2164,-0.6625627
2023-10-26 13:40:53.543,62574,134,0,-2237,-0.684913475,-2203,-0.674503525
2023-10-26 13:40:53.543,62575,215,33,-2071,-0.634088425,-2250,-0.68889375
2023-10-26 13:40:53.543,62576,135,0,-2740,-0.8389195,-2276,-0.6968543
2023-10-26 13:40:53.543,62577,213,38,-2684,-0.8217737,-2285,-0.699609875
2023-10-26 13:40:53.573,62578,135,0,-2214,-0.67787145,-2304,-0.7054272
2023-10-26 13:40:53.573,62579,214,35,-2206,-0.67542205,-2334,-0.71461245
2023-10-26 13:40:53.573,62580,133,0,-2657,-0.813506975,-2351,-0.719817425
2023-10-26 13:40:53.573,62581,213,36,-2776,-0.8499418,-2356,-0.7213483
2023-10-26 13:40:53.573,62582,132,0,-2242,-0.68644435,-2368,-0.7250224
2023-10-26 13:40:53.573,62583,213,37,-1887,-0.577752225,-2387,-0.730839725
2023-10-26 13:40:53.573,62584,132,0,-2764,-0.8462677,-2394,-0.73298295
2023-10-26 13:40:53.613,62585,213,37,-3023,-0.925567025,-2391,-0.732064425
2023-10-26 13:40:53.613,62586,132,0,-2339,-0.716143325,-2399,-0.734513825
2023-10-26 13:40:53.613,62587,213,37,-1875,-0.574078125,-2418,-0.74033115
2023-10-26 13:40:53.613,62588,133,0,-2536,-0.7764598,-2427,-0.743086725
2023-10-26 13:40:53.613,62589,214,36,-3094,-0.94730545,-2430,-0.74400525
2023-10-26 13:40:53.613,62590,130,0,-2246,-0.68766905,-2442,-0.74767935
2023-10-26 13:40:53.653,62591,212,38,-1952,-0.5976536,-2460,-0.7531905
2023-10-26 13:40:53.653,62592,130,0,-2902,-0.88851985,-2463,-0.754109025
2023-10-26 13:40:53.653,62593,211,38,-2950,-0.90321625,-2458,-0.75257815
2023-10-26 13:40:53.653,62594,131,0,-2193,-0.671441775,-2461,-0.753496675
2023-10-26 13:40:53.653,62595,210,41,-1854,-0.56764845,-2469,-0.755946075
2023-10-26 13:40:53.653,62596,129,0,-2351,-0.719817425,-2469,-0.755946075
2023-10-26 13:40:53.653,62597,211,39,-2892,-0.8854581,-2462,-0.75380285
2023-10-26 13:40:53.653,62598,127,0,-2486,-0.76115105,-2463,-0.754109025
2023-10-26 13:40:53.653,62599,209,40,-1958,-0.59949065,-2470,-0.75625225
2023-10-26 13:40:53.683,62600,130,0,-2674,-0.81871195,-2465,-0.754721375
2023-10-26 13:40:53.683,62601,209,42,-3118,-0.95465365,-2453,-0.751047275
2023-10-26 13:40:53.683,62602,128,0,-2481,-0.759620175,-2456,-0.7519658
2023-10-26 13:40:53.683,62603,210,41,-1741,-0.533050675,-2466,-0.75502755
2023-10-26 13:40:53.683,62604,128,0,-2472,-0.7568646,-2462,-0.75380285
2023-10-26 13:40:53.683,62605,209,43,-2662,-0.81503785,-2453,-0.751047275
2023-10-26 13:40:53.683,62606,129,0,-2096,-0.6417428,-2459,-0.752884325
2023-10-26 13:40:53.723,62607,208,43,-1880,-0.575609,-2469,-0.755946075
2023-10-26 13:40:53.723,62608,126,0,-2409,-0.737575575,-2467,-0.755333725
2023-10-26 13:40:53.723,62609,207,43,-2878,-0.88117165,-2462,-0.75380285
2023-10-26 13:40:53.723,62610,127,0,-2344,-0.7176742,-2473,-0.757170775
2023-10-26 13:40:53.723,62611,206,45,-2075,-0.635313125,-2489,-0.762069575
2023-10-26 13:40:53.723,62612,127,0,-2785,-0.852697375,-2486,-0.76115105
2023-10-26 13:40:53.723,62613,206,46,-2909,-0.890663075,-2468,-0.7556399
2023-10-26 13:40:53.723,62614,127,0,-2245,-0.687362875,-2460,-0.7531905
2023-10-26 13:40:53.723,62615,207,46,-1800,-0.551115,-2466,-0.75502755
2023-10-26 13:40:53.763,62616,127,0,-2848,-0.8719864,-2464,-0.7544152
2023-10-26 13:40:53.763,62617,204,47,-3075,-0.941488125,-2451,-0.750434925
2023-10-26 13:40:53.763,62618,124,0,-2155,-0.659807125,-2452,-0.7507411
2023-10-26 13:40:53.763,62619,207,47,-1938,-0.59336715,-2465,-0.754721375
2023-10-26 13:40:53.763,62620,124,0,-2908,-0.8903569,-2464,-0.7544152
2023-10-26 13:40:53.763,62621,204,49,-3001,-0.918831175,-2451,-0.750434925
2023-10-26 13:40:53.763,62622,124,0,-2355,-0.721042125,-2446,-0.74890405
2023-10-26 13:40:53.763,62623,206,49,-1978,-0.60561415,-2449,-0.749822575
2023-10-26 13:40:53.763,62624,123,0,-2802,-0.85790235,-2441,-0.747373175
2023-10-26 13:40:53.803,62625,204,48,-3033,-0.928628775,-2419,-0.740637325
2023-10-26 13:40:53.803,62626,124,0,-2191,-0.670829425,-2402,-0.73543235
2023-10-26 13:40:53.803,62627,203,48,-1906,-0.58356955,-2398,-0.73420765
2023-10-26 13:40:53.803,62628,124,0,-2680,-0.820549,-2393,-0.732676775
2023-10-26 13:40:53.803,62629,203,51,-3029,-0.927404075,-2385,-0.730227375
2023-10-26 13:40:53.803,62630,123,0,-2509,-0.768193075,-2389,-0.731452075
2023-10-26 13:40:53.803,62631,205,51,-2197,-0.672666475,-2400,-0.73482
2023-10-26 13:40:53.803,62632,124,0,-2607,-0.798198225,-2402,-0.73543235
2023-10-26 13:40:53.803,62633,205,52,-2963,-0.907196525,-2401,-0.735126175
2023-10-26 13:40:53.833,62634,122,0,-2111,-0.646335425,-2416,-0.7397188
2023-10-26 13:40:53.833,62635,204,51,-1926,-0.58969305,-2438,-0.74645465
2023-10-26 13:40:53.833,62636,121,0,-2809,-0.860045575,-2453,-0.751047275
2023-10-26 13:40:53.833,62637,203,50,-3108,-0.9515919,-2466,-0.75502755
2023-10-26 13:40:53.833,62638,120,0,-2491,-0.762681925,-2489,-0.762069575
2023-10-26 13:40:53.833,62639,204,51,-1893,-0.579589275,-2514,-0.76972395
2023-10-26 13:40:53.833,62640,121,0,-2499,-0.765131325,-2519,-0.771254825
2023-10-26 13:40:53.833,62641,202,52,-2718,-0.83218365,-2512,-0.7691116
2023-10-26 13:40:53.833,62642,121,0,-1987,-0.608369725,-2516,-0.7703363
2023-10-26 13:40:53.873,62643,203,52,-1697,-0.519578975,-2525,-0.773091875
2023-10-26 13:40:53.873,62644,120,0,-2472,-0.7568646,-2519,-0.771254825
2023-10-26 13:40:53.873,62645,204,53,-2830,-0.86647525,-2505,-0.766968375
2023-10-26 13:40:53.873,62646,120,0,-2440,-0.747067,-2509,-0.768193075
2023-10-26 13:40:53.873,62647,205,53,-1989,-0.608982075,-2527,-0.773704225
2023-10-26 13:40:53.873,62648,119,0,-3125,-0.956796875,-2534,-0.77584745
2023-10-26 13:40:53.873,62649,202,54,-3653,-1.118457275,-2528,-0.7740104
2023-10-26 13:40:53.913,62650,119,0,-2769,-0.847798575,-2527,-0.773704225
2023-10-26 13:40:53.913,62651,204,54,-1889,-0.578364575,-2530,-0.77462275
2023-10-26 13:40:53.913,62652,119,0,-2618,-0.80156615,-2520,-0.771561
2023-10-26 13:40:53.913,62653,203,53,-2833,-0.867393775,-2505,-0.766968375
2023-10-26 13:40:53.953,62654,120,0,-2293,-0.702059275,-2508,-0.7678869
2023-10-26 13:40:53.953,62655,202,53,-1880,-0.575609,-2524,-0.7727857
2023-10-26 13:40:53.953,62656,117,0,-2404,-0.7360447,-2526,-0.77339805
2023-10-26 13:40:53.953,62657,202,52,-2798,-0.85667765,-2513,-0.769417775
2023-10-26 13:40:53.953,62658,117,0,-2188,-0.6699109,-2502,-0.76604985
2023-10-26 13:40:53.953,62659,203,53,-1617,-0.495084975,-2493,-0.763294275
2023-10-26 13:40:53.953,62660,116,0,-2108,-0.6454169,-2470,-0.75625225
2023-10-26 13:40:53.953,62661,204,51,-2539,-0.777378325,-2438,-0.74645465
2023-10-26 13:40:53.953,62662,117,0,-1948,-0.5964289,-2418,-0.74033115
2023-10-26 13:40:53.953,62663,203,53,-1358,-0.41578565,-2409,-0.737575575
2023-10-26 13:40:53.993,62664,116,0,-1871,-0.572853425,-2393,-0.732676775
2023-10-26 13:40:54.003,62665,202,52,-2211,-0.676952925,-2382,-0.72930885
2023-10-26 13:40:54.003,62666,117,0,-1527,-0.467529225,-2403,-0.735738525
2023-10-26 13:40:54.003,62667,203,53,-786,-0.24065355,-2449,-0.749822575
2023-10-26 13:40:54.003,62668,114,0,-1362,-0.41701035,-2544,-0.7789092
2023-10-26 13:40:54.003,62669,203,51,-2242,-0.68644435,-2566,-0.78564505
2023-10-26 13:40:54.003,62670,117,0,-2499,-0.765131325,-2592,-0.7936056
2023-10-26 13:40:54.003,62671,204,50,-2318,-0.70971365,-2577,-0.789012975
2023-10-26 13:40:54.003,62672,115,0,-3196,-0.9785353,-2569,-0.786563575
2023-10-26 13:40:54.003,62673,203,52,-3695,-1.131316625,-2545,-0.779215375
2023-10-26 13:40:54.043,62674,118,0,-2671,-0.817793425,-2545,-0.779215375
2023-10-26 13:40:54.043,62675,204,51,-1683,-0.515292525,-2540,-0.7776845
2023-10-26 13:40:54.043,62676,116,0,-2062,-0.63133285,-2429,-0.743699075
2023-10-26 13:40:54.043,62677,203,51,-2336,-0.7152248,-2361,-0.722879175
2023-10-26 13:40:54.043,62678,114,0,-1796,-0.5498903,-2387,-0.730839725
2023-10-26 13:40:54.043,62679,201,51,-1175,-0.359755625,-2367,-0.724716225
2023-10-26 13:40:54.043,62680,116,0,-1699,-0.520191325,-2299,-0.703896325
2023-10-26 13:40:54.043,62681,200,50,-2304,-0.7054272,-2221,-0.680014675
2023-10-26 13:40:54.043,62682,115,0,-1803,-0.552033525,-2153,-0.659194775
2023-10-26 13:40:54.043,62683,202,50,-1258,-0.38516815,-2095,-0.641436625
2023-10-26 13:40:54.043,62684,115,0,-1827,-0.559381725,-1939,-0.593673325
2023-10-26 13:40:54.083,62685,200,50,-2090,-0.63990575,-1762,-0.53948035
2023-10-26 13:40:54.083,62686,114,0,-1729,-0.529376575,-1794,-0.54927795
2023-10-26 13:40:54.083,62687,200,50,-1080,-0.330669,-1856,-0.5682608
2023-10-26 13:40:54.083,62688,113,0,-1832,-0.5609126,-1891,-0.578976925
2023-10-26 13:40:54.083,62689,200,49,-2226,-0.68154555,-2011,-0.615717925
2023-10-26 13:40:54.083,62690,114,0,-1646,-0.50396405,-2402,-0.73543235
2023-10-26 13:40:54.083,62691,199,50,-1075,-0.329138125,-2653,-0.812282275
2023-10-26 13:40:54.083,62692,115,0,-1526,-0.46722305,-2626,-0.80401555
2023-10-26 13:40:54.083,62693,198,47,-1975,-0.604695625,-2568,-0.7862574
2023-10-26 13:40:54.123,62694,114,0,-1539,-0.471203325,-2528,-0.7740104
2023-10-26 13:40:54.123,62695,198,50,-907,-0.277700725,-2342,-0.71706185
2023-10-26 13:40:54.123,62696,115,0,-1530,-0.46844775,-2053,-0.628577275
2023-10-26 13:40:54.123,62697,197,47,-2078,-0.63623165,-1838,-0.56274965
2023-10-26 13:40:54.123,62698,113,0,-1558,-0.47702065,-1750,-0.53580625
2023-10-26 13:40:54.123,62699,197,47,-1156,-0.3539383,-1711,-0.523865425
2023-10-26 13:40:54.123,62700,114,0,-1765,-0.540398875,-1679,-0.514067825
2023-10-26 13:40:54.123,62701,197,47,-2160,-0.661338,-1770,-0.54192975
2023-10-26 13:40:54.123,62702,115,0,-1409,-0.431400575,-1923,-0.588774525
2023-10-26 13:40:54.123,62703,196,47,-930,-0.28474275,-1932,-0.5915301
2023-10-26 13:40:54.163,62704,114,0,-1495,-0.457731625,-1810,-0.55417675
2023-10-26 13:40:54.163,62705,195,47,-1812,-0.5547891,-1769,-0.541623575
2023-10-26 13:40:54.163,62706,116,0,-935,-0.286273625,-1720,-0.526621
2023-10-26 13:40:54.163,62707,193,47,-517,-0.158292475,-1694,-0.51866045
2023-10-26 13:40:54.163,62708,117,0,-1609,-0.492635575,-1686,-0.51621105
2023-10-26 13:40:54.163,62709,193,44,-1891,-0.578976925,-1683,-0.515292525
2023-10-26 13:40:54.163,62710,118,0,-1190,-0.36434825,-1692,-0.5180481
2023-10-26 13:40:54.163,62711,193,46,-567,-0.173601225,-1702,-0.52110985
2023-10-26 13:40:54.203,62712,118,0,-1580,-0.4837565,-1687,-0.516517225
2023-10-26 13:40:54.203,62713,191,44,-2018,-0.61786115,-1648,-0.5045764
2023-10-26 13:40:54.203,62714,118,0,-1418,-0.43415615,-1611,-0.493247925
2023-10-26 13:40:54.203,62715,191,44,-594,-0.18186795,-1590,-0.48681825
2023-10-26 13:40:54.203,62716,119,0,-1192,-0.3649606,-1571,-0.481000925
2023-10-26 13:40:54.203,62717,191,43,-1829,-0.559994075,-1556,-0.4764083
2023-10-26 13:40:54.203,62718,119,0,-1260,-0.3857805,-1559,-0.477326825
2023-10-26 13:40:54.243,62719,189,45,-770,-0.23575475,-1573,-0.481613275
2023-10-26 13:40:54.243,62720,120,0,-1238,-0.37904465,-1577,-0.482837975
2023-10-26 13:40:54.243,62721,190,42,-1693,-0.518354275,-1564,-0.4788577
2023-10-26 13:40:54.243,62722,120,0,-1452,-0.4445661,-1549,-0.474265075
2023-10-26 13:40:54.243,62723,188,41,-917,-0.280762475,-1534,-0.46967245
2023-10-26 13:40:54.243,62724,119,0,-1702,-0.52110985,-1505,-0.460793375
2023-10-26 13:40:54.243,62725,189,40,-2166,-0.66317505,-1470,-0.45007725
2023-10-26 13:40:54.283,62726,121,0,-1464,-0.4482402,-1447,-0.443035225
2023-10-26 13:40:54.283,62727,187,42,-1180,-0.3612865,-1431,-0.438136425
2023-10-26 13:40:54.283,62728,122,0,-1703,-0.521416025,-1400,-0.428645
2023-10-26 13:40:54.283,62729,187,42,-2206,-0.67542205,-1360,-0.416398
2023-10-26 13:40:54.283,62730,122,0,-1831,-0.560606425,-1338,-0.40966215
2023-10-26 13:40:54.283,62731,187,41,-1007,-0.308318225,-1333,-0.408131275
2023-10-26 13:40:54.283,62732,121,0,-1601,-0.490186175,-1317,-0.403232475
2023-10-26 13:40:54.323,62733,186,39,-2309,-0.706958075,-1291,-0.395271925
2023-10-26 13:40:54.323,62734,123,0,-1960,-0.600103,-1284,-0.3931287
2023-10-26 13:40:54.323,62735,185,39,-1037,-0.317503475,-1299,-0.397721325
2023-10-26 13:40:54.323,62736,125,0,-1702,-0.52110985,-1306,-0.39986455
2023-10-26 13:40:54.323,62737,185,38,-2345,-0.717980375,-1298,-0.39741515
2023-10-26 13:40:54.323,62738,126,0,-1796,-0.5498903,-1300,-0.3980275
2023-10-26 13:40:54.323,62739,184,38,-1249,-0.382412575,-1316,-0.4029263
2023-10-26 13:40:54.323,62740,127,0,-1895,-0.580201625,-1322,-0.40476335
2023-10-26 13:40:54.323,62741,186,37,-2587,-0.792074725,-1314,-0.40231395
2023-10-26 13:40:54.373,62742,126,0,-2108,-0.6454169,-1316,-0.4029263
2023-10-26 13:40:54.373,62743,182,39,-1514,-0.46354895,-1339,-0.409968325
2023-10-26 13:40:54.373,62744,127,0,-2098,-0.64235515,-1366,-0.41823505
2023-10-26 13:40:54.373,62745,181,35,-2636,-0.8070773,-1393,-0.426501775
2023-10-26 13:40:54.373,62746,126,0,-1889,-0.578364575,-1434,-0.43905495
2023-10-26 13:40:54.373,62747,181,38,-1249,-0.382412575,-1489,-0.455894575
2023-10-26 13:40:54.373,62748,130,0,-1788,-0.5474409,-1534,-0.46967245
2023-10-26 13:40:54.373,62749,181,36,-2718,-0.83218365,-1561,-0.477939175
2023-10-26 13:40:54.373,62750,127,0,-2032,-0.6221476,-1594,-0.48804295
2023-10-26 13:40:54.373,62751,181,37,-1154,-0.35332595,-1636,-0.5009023
2023-10-26 13:40:54.413,62752,126,0,-1968,-0.6025524,-1664,-0.5094752
2023-10-26 13:40:54.413,62753,181,36,-2717,-0.831877475,-1674,-0.51253695
2023-10-26 13:40:54.413,62754,128,0,-1938,-0.59336715,-1693,-0.518354275
2023-10-26 13:40:54.413,62755,179,38,-1375,-0.420990625,-1722,-0.52723335
2023-10-26 13:40:54.413,62756,129,0,-2078,-0.63623165,-1736,-0.5315198
2023-10-26 13:40:54.413,62757,180,35,-2710,-0.82973425,-1736,-0.5315198
2023-10-26 13:40:54.413,62758,129,0,-2086,-0.63868105,-1745,-0.534275375
2023-10-26 13:40:54.453,62759,177,35,-1250,-0.38271875,-1774,-0.54315445
2023-10-26 13:40:54.453,62760,130,0,-1786,-0.54682855,-1805,-0.552645875
2023-10-26 13:40:54.453,62761,178,34,-2695,-0.825141625,-1829,-0.559994075
2023-10-26 13:40:54.463,62762,130,0,-2116,-0.6478663,-1861,-0.569791675
2023-10-26 13:40:54.463,62763,179,35,-1294,-0.39619045,-1904,-0.5829572
2023-10-26 13:40:54.463,62764,131,0,-2034,-0.62275995,-1933,-0.591836275
2023-10-26 13:40:54.463,62765,177,34,-2562,-0.78442035,-1942,-0.59459185
2023-10-26 13:40:54.463,62766,131,0,-2043,-0.625515525,-1956,-0.5988783
2023-10-26 13:40:54.463,62767,175,37,-1442,-0.44150435,-1979,-0.605920325
2023-10-26 13:40:54.463,62768,131,0,-2265,-0.693486375,-1987,-0.608369725
2023-10-26 13:40:54.463,62769,177,35,-2681,-0.820855175,-1977,-0.605307975
2023-10-26 13:40:54.503,62770,132,0,-2199,-0.673278825,-1976,-0.6050018
2023-10-26 13:40:54.503,62771,176,36,-1355,-0.414867125,-1986,-0.60806355
2023-10-26 13:40:54.503,62772,133,0,-2006,-0.61418705,-1985,-0.607757375
2023-10-26 13:40:54.503,62773,176,36,-2512,-0.7691116,-1971,-0.603470925
2023-10-26 13:40:54.503,62774,133,0,-2127,-0.651234225,-1968,-0.6025524
2023-10-26 13:40:54.503,62775,174,38,-1610,-0.49294175,-1983,-0.607145025
2023-10-26 13:40:54.503,62776,133,0,-2120,-0.649091,-1987,-0.608369725
2023-10-26 13:40:54.503,62777,174,36,-2792,-0.8548406,-1975,-0.604695625
2023-10-26 13:40:54.503,62778,134,0,-2059,-0.630414325,-1975,-0.604695625
2023-10-26 13:40:54.543,62779,172,37,-1291,-0.395271925,-1997,-0.611431475
2023-10-26 13:40:54.543,62780,134,0,-1923,-0.588774525,-2011,-0.615717925
2023-10-26 13:40:54.543,62781,173,34,-2785,-0.852697375,-2006,-0.61418705
2023-10-26 13:40:54.543,62782,136,0,-2341,-0.716755675,-2004,-0.6135747
2023-10-26 13:40:54.543,62783,173,36,-1402,-0.42925735,-2012,-0.6160241
2023-10-26 13:40:54.543,62784,135,0,-2216,-0.6784838,-2012,-0.6160241
2023-10-26 13:40:54.543,62785,173,34,-3060,-0.9368955,-2002,-0.61296235
2023-10-26 13:40:54.583,62786,134,0,-2394,-0.73298295,-2005,-0.613880875
2023-10-26 13:40:54.593,62787,172,35,-1619,-0.495697325,-2028,-0.6209229
2023-10-26 13:40:54.593,62788,136,0,-2277,-0.697160475,-2045,-0.626127875
2023-10-26 13:40:54.593,62789,171,35,-2922,-0.89464335,-2045,-0.626127875
2023-10-26 13:40:54.593,62790,138,0,-2351,-0.719817425,-2046,-0.62643405
2023-10-26 13:40:54.593,62791,171,37,-1613,-0.493860275,-2061,-0.631026675
2023-10-26 13:40:54.593,62792,138,0,-2160,-0.661338,-2071,-0.634088425
2023-10-26 13:40:54.633,62793,171,35,-2903,-0.888826025,-2070,-0.63378225
2023-10-26 13:40:54.633,62794,137,0,-2521,-0.771867175,-2079,-0.636537825
2023-10-26 13:40:54.633,62795,169,35,-1661,-0.508556675,-2096,-0.6417428
2023-10-26 13:40:54.633,62796,137,0,-2328,-0.7127754,-2096,-0.6417428
2023-10-26 13:40:54.633,62797,169,33,-2876,-0.8805593,-2078,-0.63623165
2023-10-26 13:40:54.633,62798,139,0,-2351,-0.719817425,-2072,-0.6343946
2023-10-26 13:40:54.633,62799,168,35,-1843,-0.564280525,-2086,-0.63868105
2023-10-26 13:40:54.633,62800,141,0,-2353,-0.720429775,-2094,-0.64113045
2023-10-26 13:40:54.673,62801,169,33,-2751,-0.842287425,-2090,-0.63990575
2023-10-26 13:40:54.673,62802,141,0,-2490,-0.76237575,-2099,-0.642661325
2023-10-26 13:40:54.673,62803,168,32,-1808,-0.5535644,-2126,-0.65092805
2023-10-26 13:40:54.673,62804,141,0,-2252,-0.6895061,-2146,-0.65705155
2023-10-26 13:40:54.673,62805,168,33,-2773,-0.849023275,-2156,-0.6601133
2023-10-26 13:40:54.673,62806,142,0,-2284,-0.6993037,-2179,-0.667155325
2023-10-26 13:40:54.673,62807,166,34,-1789,-0.547747075,-2219,-0.679402325
2023-10-26 13:40:54.673,62808,140,0,-2407,-0.736963225,-2247,-0.687975225
2023-10-26 13:40:54.673,62809,167,33,-3094,-0.94730545,-2252,-0.6895061
2023-10-26 13:40:54.723,62810,142,0,-2399,-0.734513825,-2258,-0.69134315
2023-10-26 13:40:54.723,62811,165,32,-1785,-0.546522375,-2282,-0.69869135
2023-10-26 13:40:54.723,62812,142,0,-2382,-0.72930885,-2300,-0.7042025
2023-10-26 13:40:54.723,62813,165,33,-3087,-0.945162225,-2301,-0.704508675
2023-10-26 13:40:54.723,62814,143,0,-2577,-0.789012975,-2306,-0.70603955
2023-10-26 13:40:54.723,62815,165,30,-1732,-0.5302951,-2323,-0.711244525
2023-10-26 13:40:54.723,62816,144,0,-2141,-0.655520675,-2330,-0.71338775
2023-10-26 13:40:54.723,62817,164,31,-2922,-0.89464335,-2320,-0.710326
2023-10-26 13:40:54.723,62818,145,0,-2252,-0.6895061,-2314,-0.70848895
2023-10-26 13:40:54.723,62819,163,29,-1379,-0.422215325,-2325,-0.711856875
2023-10-26 13:40:54.723,62820,146,0,-2083,-0.637762525,-2335,-0.714918625
2023-10-26 13:40:54.763,62821,163,29,-2838,-0.86892465,-2332,-0.7140001
2023-10-26 13:40:54.763,62822,145,0,-2264,-0.6931802,-2333,-0.714306275
2023-10-26 13:40:54.763,62823,163,29,-1652,-0.5058011,-2344,-0.7176742
2023-10-26 13:40:54.763,62824,144,0,-2277,-0.697160475,-2346,-0.71828655
2023-10-26 13:40:54.763,62825,161,27,-2871,-0.879028425,-2337,-0.715530975
2023-10-26 13:40:54.763,62826,147,0,-2500,-0.7654375,-2337,-0.715530975
2023-10-26 13:40:54.763,62827,162,26,-1868,-0.5719349,-2348,-0.7188989
2023-10-26 13:40:54.763,62828,147,0,-2328,-0.7127754,-2351,-0.719817425
2023-10-26 13:40:54.763,62829,162,26,-2862,-0.87627285,-2345,-0.717980375
2023-10-26 13:40:54.763,62830,148,0,-2511,-0.768805425,-2354,-0.72073595
2023-10-26 13:40:54.763,62831,161,26,-1759,-0.538561825,-2377,-0.727777975
2023-10-26 13:40:54.813,62832,149,0,-2164,-0.6625627,-2392,-0.7323706
2023-10-26 13:40:54.813,62833,162,25,-2791,-0.854534425,-2390,-0.73175825
2023-10-26 13:40:54.813,62834,151,0,-2769,-0.847798575,-2391,-0.732064425
2023-10-26 13:40:54.813,62835,160,24,-1786,-0.54682855,-2399,-0.734513825
2023-10-26 13:40:54.813,62836,148,0,-2147,-0.657357725,-2388,-0.7311459
2023-10-26 13:40:54.813,62837,159,25,-2797,-0.856371475,-2356,-0.7213483
2023-10-26 13:40:54.813,62838,151,0,-2187,-0.669604725,-2332,-0.7140001
2023-10-26 13:40:54.813,62839,159,23,-1288,-0.3943534,-2323,-0.711244525
2023-10-26 13:40:54.813,62840,154,0,-1588,-0.4862059,-2305,-0.705733375
2023-10-26 13:40:54.813,62841,159,24,-2316,-0.7091013,-2273,-0.695935775
2023-10-26 13:40:54.833,62842,151,0,-2015,-0.616942625,-2249,-0.688587575
2023-10-26 13:40:54.833,62843,158,22,-2201,-0.673891175,-2246,-0.68766905
2023-10-26 13:40:54.833,62844,153,0,-3328,-1.0189504,-2248,-0.6882814
2023-10-26 13:40:54.833,62845,159,22,-4289,-1.313184575,-2243,-0.686750525
2023-10-26 13:40:54.833,62846,153,0,-3604,-1.1034547,-2251,-0.689199925
2023-10-26 13:40:54.833,62847,158,22,-2425,-0.742474375,-2280,-0.698079
2023-10-26 13:40:54.833,62848,153,0,-2438,-0.74645465,-2304,-0.7054272
2023-10-26 13:40:54.833,62849,159,21,-3101,-0.949448675,-2311,-0.707570425
2023-10-26 13:40:54.833,62850,156,0,-2464,-0.7544152,-2323,-0.711244525
2023-10-26 13:40:54.833,62851,156,21,-1690,-0.51743575,-2351,-0.719817425
2023-10-26 13:40:54.863,62852,155,0,-2136,-0.6539898,-2371,-0.725940925
2023-10-26 13:40:54.863,62853,157,20,-2762,-0.84565535,-2370,-0.72563475
2023-10-26 13:40:54.863,62854,158,0,-2069,-0.633476075,-2366,-0.72441005
2023-10-26 13:40:54.863,62855,157,17,-1818,-0.55662615,-2364,-0.7237977
2023-10-26 13:40:54.863,62856,157,0,-2489,-0.762069575,-2343,-0.717368025
2023-10-26 13:40:54.863,62857,158,18,-2747,-0.841062725,-2298,-0.70359015
2023-10-26 13:40:54.893,62858,158,0,-2553,-0.781664775,-2250,-0.68889375
2023-10-26 13:40:54.893,62859,155,18,-1806,-0.55295205,-2215,-0.678177625
2023-10-26 13:40:54.893,62860,159,0,-2300,-0.7042025,-2192,-0.6711356
2023-10-26 13:40:54.893,62861,154,19,-2947,-0.902297725,-2188,-0.6699109
2023-10-26 13:40:54.893,62862,159,0,-2466,-0.75502755,-2368,-0.7250224
2023-10-26 13:40:54.893,62863,158,15,-1795,-0.549584125,-2852,-0.8732111
2023-10-26 13:40:54.923,62864,160,0,-2468,-0.7556399,-2988,-0.9148509
2023-10-26 13:40:54.923,62865,156,14,-3174,-0.97179945,-3013,-0.922505275
2023-10-26 13:40:54.923,62866,161,0,-2801,-0.857596175,-3088,-0.9454684
2023-10-26 13:40:54.923,62867,155,15,-1725,-0.528151875,-3012,-0.9221991
2023-10-26 13:40:54.923,62868,162,0,-2180,-0.6674615,-2707,-0.828815725
2023-10-26 13:40:54.923,62869,156,16,-2851,-0.872904925,-2435,-0.745536125
2023-10-26 13:40:54.923,62870,162,0,-2557,-0.782889475,-2309,-0.706958075
2023-10-26 13:40:54.963,62871,155,15,-1689,-0.517129575,-2196,-0.6723603
2023-10-26 13:40:54.963,62872,161,0,-2295,-0.702671625,-2097,-0.642048975
2023-10-26 13:40:54.963,62873,156,14,-2948,-0.9026039,-2192,-0.6711356
2023-10-26 13:40:54.963,62874,163,0,-2451,-0.750434925,-2418,-0.74033115
2023-10-26 13:40:54.963,62875,154,12,-1672,-0.5119246,-2534,-0.77584745
2023-10-26 13:40:55.023,62876,164,0,-2394,-0.73298295,-2464,-0.7544152
2023-10-26 13:40:55.023,62877,155,14,-3026,-0.92648555,-2381,-0.729002675
2023-10-26 13:40:55.023,62878,165,0,-2566,-0.78564505,-2324,-0.7115507
2023-10-26 13:40:55.023,62879,155,13,-1868,-0.5719349,-2287,-0.700222225
2023-10-26 13:40:55.023,62880,165,0,-2099,-0.642661325,-2280,-0.698079
2023-10-26 13:40:55.023,62881,154,12,-2887,-0.883927225,-2293,-0.702059275
2023-10-26 13:40:55.053,62882,167,0,-2363,-0.723491525,-2340,-0.7164495
2023-10-26 13:40:55.053,62883,153,11,-1887,-0.577752225,-2405,-0.736350875
2023-10-26 13:40:55.053,62884,167,0,-2002,-0.61296235,-2446,-0.74890405
2023-10-26 13:40:55.053,62885,155,12,-2552,-0.7813586,-2449,-0.749822575
2023-10-26 13:40:55.053,62886,169,0,-2196,-0.6723603,-2441,-0.747373175
2023-10-26 13:40:55.083,62887,156,10,-1543,-0.472428025,-2441,-0.747373175
2023-10-26 13:40:55.083,62888,169,0,-1793,-0.548971775,-2435,-0.745536125
2023-10-26 13:40:55.083,62889,154,9,-2749,-0.841675075,-2420,-0.7409435
2023-10-26 13:40:55.083,62890,169,0,-2533,-0.775541275,-2416,-0.7397188
2023-10-26 13:40:55.083,62891,154,10,-1667,-0.510393725,-2426,-0.74278055
2023-10-26 13:40:55.083,62892,172,0,-2066,-0.63255755,-2424,-0.7421682
2023-10-26 13:40:55.113,62893,153,11,-2864,-0.8768852,-2403,-0.735738525
2023-10-26 13:40:55.113,62894,170,0,-2384,-0.7299212,-2385,-0.730227375
2023-10-26 13:40:55.113,62895,156,9,-1773,-0.542848275,-2386,-0.73053355
2023-10-26 13:40:55.113,62896,170,0,-1984,-0.6074512,-2386,-0.73053355
2023-10-26 13:40:55.113,62897,154,7,-2627,-0.804321725,-2373,-0.726553275
2023-10-26 13:40:55.113,62898,172,0,-2614,-0.80034145,-2364,-0.7237977
2023-10-26 13:40:55.143,62899,156,7,-1650,-0.50518875,-2371,-0.725940925
2023-10-26 13:40:55.143,62900,172,0,-1951,-0.597347425,-2374,-0.72685945
2023-10-26 13:40:55.143,62901,155,7,-2723,-0.833714525,-2361,-0.722879175
2023-10-26 13:40:55.143,62902,173,0,-2552,-0.7813586,-2349,-0.719205075
2023-10-26 13:40:55.173,62903,155,6,-1859,-0.569179325,-2346,-0.71828655
2023-10-26 13:40:55.173,62904,173,0,-1919,-0.587549825,-2327,-0.712469225
2023-10-26 13:40:55.173,62905,153,5,-2556,-0.7825833,-2283,-0.698997525
2023-10-26 13:40:55.173,62906,174,0,-2313,-0.708182775,-2242,-0.68644435
2023-10-26 13:40:55.173,62907,154,6,-1740,-0.5327445,-2220,-0.6797085
2023-10-26 13:40:55.173,62908,174,0,-1826,-0.55907555,-2203,-0.674503525
2023-10-26 13:40:55.213,62909,153,6,-2631,-0.805546425,-2180,-0.6674615
2023-10-26 13:40:55.213,62910,174,0,-2335,-0.714918625,-2169,-0.664093575
2023-10-26 13:40:55.213,62911,154,4,-1737,-0.531825975,-2178,-0.66684915
2023-10-26 13:40:55.213,62912,175,0,-1735,-0.531213625,-2185,-0.668992375
2023-10-26 13:40:55.213,62913,154,5,-2335,-0.714918625,-2182,-0.66807385
2023-10-26 13:40:55.213,62914,176,0,-2315,-0.708795125,-2184,-0.6686862
2023-10-26 13:40:55.243,62915,152,4,-1635,-0.500596125,-2204,-0.6748097
2023-10-26 13:40:55.243,62916,176,0,-2019,-0.618167325,-2222,-0.68032085
2023-10-26 13:40:55.243,62917,153,4,-2665,-0.815956375,-2224,-0.6809332
2023-10-26 13:40:55.243,62918,176,0,-2354,-0.72073595,-2227,-0.681851725
2023-10-26 13:40:55.273,62919,154,2,-1405,-0.430175875,-2245,-0.687362875
2023-10-26 13:40:55.273,62920,178,0,-1991,-0.609594425,-2261,-0.692261675
2023-10-26 13:40:55.273,62921,152,4,-2663,-0.815344025,-2254,-0.69011845
2023-10-26 13:40:55.273,62922,178,0,-2221,-0.680014675,-2241,-0.686138175
2023-10-26 13:40:55.273,62923,152,3,-1469,-0.449771075,-2236,-0.6846073
2023-10-26 13:40:55.273,62924,177,0,-1803,-0.552033525,-2229,-0.682464075
2023-10-26 13:40:55.273,62925,152,1,-2507,-0.767580725,-2210,-0.67664675
2023-10-26 13:40:55.303,62926,179,0,-2270,-0.69501725,-2194,-0.67174795
2023-10-26 13:40:55.303,62927,152,0,-1403,-0.429563525,-2195,-0.672054125
2023-10-26 13:40:55.303,62928,180,0,-1505,-0.460793375,-2196,-0.6723603
2023-10-26 13:40:55.303,62929,153,1,-2369,-0.725328575,-2178,-0.66684915
2023-10-26 13:40:55.303,62930,180,0,-2158,-0.66072565,-2153,-0.659194775
2023-10-26 13:40:55.303,62931,152,0,-1288,-0.3943534,-2138,-0.65460215
2023-10-26 13:40:55.333,62932,178,0,-1438,-0.44027965,-2124,-0.6503157
2023-10-26 13:40:55.333,62933,153,0,-2327,-0.712469225,-2106,-0.64480455
2023-10-26 13:40:55.333,62934,181,0,-2034,-0.62275995,-2096,-0.6417428
2023-10-26 13:40:55.333,62935,153,0,-1033,-0.316278775,-2100,-0.6429675
2023-10-26 13:40:55.333,62936,179,0,-1593,-0.487736775,-2101,-0.643273675
2023-10-26 13:40:55.333,62937,154,0,-2050,-0.62765875,-2092,-0.6405181
2023-10-26 13:40:55.333,62938,180,0,-2065,-0.632251375,-2088,-0.6392934
2023-10-26 13:40:55.333,62939,152,0,-1502,-0.45987485,-2097,-0.642048975
2023-10-26 13:40:55.363,62940,182,0,-1530,-0.46844775,-2102,-0.64357985
2023-10-26 13:40:55.363,62941,154,0,-2305,-0.705733375,-2094,-0.64113045
2023-10-26 13:40:55.363,62942,183,0,-2122,-0.64970335,-2087,-0.638987225
2023-10-26 13:40:55.363,62943,153,0,-1180,-0.3612865,-2089,-0.639599575
2023-10-26 13:40:55.363,62944,181,0,-1393,-0.426501775,-2082,-0.63745635
2023-10-26 13:40:55.363,62945,152,0,-2271,-0.695323425,-2055,-0.629189625
2023-10-26 13:40:55.363,62946,183,0,-1889,-0.578364575,-2029,-0.621229075
2023-10-26 13:40:55.393,62947,154,0,-1380,-0.4225215,-2021,-0.618779675
2023-10-26 13:40:55.393,62948,183,0,-1425,-0.436299375,-2005,-0.613880875
2023-10-26 13:40:55.393,62949,153,0,-2235,-0.684301125,-1967,-0.602246225
2023-10-26 13:40:55.393,62950,184,0,-1955,-0.598572125,-1928,-0.5903054
2023-10-26 13:40:55.393,62951,153,0,-1369,-0.419153575,-1906,-0.58356955
2023-10-26 13:40:55.423,62952,182,0,-1411,-0.432012925,-1883,-0.576527525
2023-10-26 13:40:55.423,62953,152,0,-2170,-0.66439975,-1847,-0.565505225
2023-10-26 13:40:55.423,62954,183,0,-2172,-0.6650121,-1814,-0.55540145
2023-10-26 13:40:55.423,62955,154,0,-1414,-0.43293145,-1801,-0.551421175
2023-10-26 13:40:55.423,62956,185,0,-1484,-0.4543637,-1795,-0.549584125
2023-10-26 13:40:55.423,62957,152,0,-2321,-0.710632175,-1778,-0.54437915
2023-10-26 13:40:55.423,62958,184,0,-1877,-0.574690475,-1763,-0.539786525
2023-10-26 13:40:55.463,62959,154,0,-1225,-0.375064375,-1766,-0.54070505
2023-10-26 13:40:55.463,62960,185,0,-1535,-0.469978625,-1772,-0.5425421
2023-10-26 13:40:55.463,62961,151,0,-2194,-0.67174795,-1764,-0.5400927
2023-10-26 13:40:55.463,62962,185,0,-1988,-0.6086759,-1760,-0.538868
2023-10-26 13:40:55.463,62963,153,0,-1406,-0.43048205,-1771,-0.542235925
2023-10-26 13:40:55.463,62964,186,0,-1641,-0.502433175,-1780,-0.5449915
2023-10-26 13:40:55.493,62965,150,0,-2022,-0.61908585,-1773,-0.542848275
2023-10-26 13:40:55.493,62966,185,0,-1919,-0.587549825,-1764,-0.5400927
2023-10-26 13:40:55.493,62967,150,0,-1292,-0.3955781,-1765,-0.540398875
2023-10-26 13:40:55.493,62968,184,0,-1548,-0.4739589,-1766,-0.54070505
2023-10-26 13:40:55.493,62969,151,0,-2317,-0.709407475,-1754,-0.53703095
2023-10-26 13:40:55.523,62970,185,0,-2029,-0.621229075,-1743,-0.533663025
2023-10-26 13:40:55.523,62971,151,0,-1322,-0.40476335,-1750,-0.53580625
2023-10-26 13:40:55.523,62972,186,0,-1550,-0.47457125,-1759,-0.538561825
2023-10-26 13:40:55.523,62973,150,0,-2164,-0.6625627,-1754,-0.53703095
2023-10-26 13:40:55.523,62974,187,0,-2216,-0.6784838,-1751,-0.536112425
2023-10-26 13:40:55.523,62975,149,0,-1628,-0.4984529,-1761,-0.539174175
2023-10-26 13:40:55.523,62976,186,0,-1705,-0.522028375,-1771,-0.542235925
2023-10-26 13:40:55.553,62977,150,0,-2632,-0.8058526,-1769,-0.541623575
2023-10-26 13:40:55.553,62978,185,0,-2401,-0.735126175,-1768,-0.5413174
2023-10-26 13:40:55.553,62979,147,0,-1509,-0.462018075,-1777,-0.544072975
2023-10-26 13:40:55.553,62980,187,0,-1613,-0.493860275,-1783,-0.545910025
2023-10-26 13:40:55.553,62981,148,0,-2457,-0.752271975,-1776,-0.5437668
2023-10-26 13:40:55.553,62982,188,0,-2188,-0.6699109,-1764,-0.5400927
2023-10-26 13:40:55.583,62983,146,0,-1582,-0.48436885,-1763,-0.539786525
2023-10-26 13:40:55.583,62984,187,0,-1643,-0.503045525,-1764,-0.5400927
2023-10-26 13:40:55.583,62985,147,0,-2372,-0.7262471,-1756,-0.5376433
2023-10-26 13:40:55.583,62986,188,0,-2041,-0.624903175,-1752,-0.5364186
2023-10-26 13:40:55.583,62987,147,0,-1567,-0.479776225,-1762,-0.53948035
2023-10-26 13:40:55.583,62988,189,0,-1847,-0.565505225,-1769,-0.541623575
2023-10-26 13:40:55.583,62989,146,0,-2530,-0.77462275,-1761,-0.539174175
2023-10-26 13:40:55.583,62990,188,0,-2263,-0.692874025,-1756,-0.5376433
2023-10-26 13:40:55.613,62991,149,0,-1367,-0.418541225,-1771,-0.542235925
2023-10-26 13:40:55.613,62992,190,0,-1456,-0.4457908,-1790,-0.54805325
2023-10-26 13:40:55.613,62993,145,0,-2458,-0.75257815,-1804,-0.5523397
2023-10-26 13:40:55.613,62994,191,0,-2342,-0.71706185,-1824,-0.5584632
2023-10-26 13:40:55.613,62995,146,0,-1483,-0.454057525,-1859,-0.569179325
2023-10-26 13:40:55.613,62996,190,0,-1710,-0.52355925,-1890,-0.57867075
2023-10-26 13:40:55.613,62997,147,0,-2444,-0.7482917,-1904,-0.5829572
2023-10-26 13:40:55.643,62998,192,0,-2112,-0.6466416,-1920,-0.587856
2023-10-26 13:40:55.643,62999,146,0,-1488,-0.4555884,-1951,-0.597347425
2023-10-26 13:40:55.643,63000,190,0,-1900,-0.5817325,-1981,-0.606532675
2023-10-26 13:40:55.643,63001,145,0,-2463,-0.754109025,-1992,-0.6099006
2023-10-26 13:40:55.643,63002,190,0,-2028,-0.6209229,-1992,-0.6099006
2023-10-26 13:40:55.673,63003,145,0,-1439,-0.440585825,-1995,-0.610819125
2023-10-26 13:40:55.673,63004,192,0,-1632,-0.4996776,-1994,-0.61051295
2023-10-26 13:40:55.673,63005,146,0,-2366,-0.72441005,-1982,-0.60683885
2023-10-26 13:40:55.713,63006,192,0,-2072,-0.6343946,-1974,-0.60438945
2023-10-26 13:40:55.713,63007,145,0,-1097,-0.335873975,-1981,-0.606532675
2023-10-26 13:40:55.713,63008,194,0,-1105,-0.338323375,-1983,-0.607145025
2023-10-26 13:40:55.713,63009,144,0,-1650,-0.50518875,-1966,-0.60194005
2023-10-26 13:40:55.713,63010,192,0,-1478,-0.45252665,-1950,-0.59704125
2023-10-26 13:40:55.713,63011,144,0,-1080,-0.330669,-1951,-0.597347425
2023-10-26 13:40:55.743,63012,190,0,-2246,-0.68766905,-1955,-0.598572125
2023-10-26 13:40:55.743,63013,147,0,-3766,-1.15305505,-1951,-0.597347425
2023-10-26 13:40:55.743,63014,192,2,-3384,-1.0360962,-1953,-0.597959775
2023-10-26 13:40:55.743,63015,145,0,-2214,-0.67787145,-1965,-0.601633875
2023-10-26 13:40:55.743,63016,192,0,-2187,-0.669604725,-1970,-0.60316475
2023-10-26 13:40:55.743,63017,146,0,-2712,-0.8303466,-1961,-0.600409175
2023-10-26 13:40:55.773,63018,191,2,-2469,-0.755946075,-1953,-0.597959775
2023-10-26 13:40:55.773,63019,146,0,-1384,-0.4237462,-1960,-0.600103
2023-10-26 13:40:55.773,63020,195,3,-1708,-0.5229469,-1967,-0.602246225
2023-10-26 13:40:55.773,63021,145,0,-2400,-0.73482,-1958,-0.59949065
2023-10-26 13:40:55.802,63022,193,2,-2556,-0.7825833,-1948,-0.5964289
2023-10-26 13:40:55.802,63023,147,0,-1678,-0.51376165,-1947,-0.596122725
2023-10-26 13:40:55.802,63024,192,2,-1923,-0.588774525,-1938,-0.59336715
2023-10-26 13:40:55.802,63025,147,0,-2552,-0.7813586,-1903,-0.582651025
2023-10-26 13:40:55.802,63026,195,3,-2321,-0.710632175,-1858,-0.56887315
2023-10-26 13:40:55.802,63027,148,0,-1534,-0.46967245,-1816,-0.5560138
2023-10-26 13:40:55.832,63028,194,3,-1643,-0.503045525,-1752,-0.5364186
2023-10-26 13:40:55.832,63029,147,0,-2708,-0.8291219,-1728,-0.5290704
2023-10-26 13:40:55.832,63030,194,6,-2320,-0.710326,-1730,-0.52968275
2023-10-26 13:40:55.832,63031,147,0,-1422,-0.43538085,-2119,-0.648784825
2023-10-26 13:40:55.832,63032,193,6,-1570,-0.48069475,-2347,-0.718592725
2023-10-26 13:40:55.832,63033,152,0,-2473,-0.757170775,-2443,-0.747985525
2023-10-26 13:40:55.832,63034,195,7,-2386,-0.73053355,-2612,-0.7997291
2023-10-26 13:40:55.832,63035,150,0,-1672,-0.5119246,-2692,-0.8242231
2023-10-26 13:40:55.832,63036,194,6,-1711,-0.523865425,-2500,-0.7654375
2023-10-26 13:40:55.832,63037,151,0,-2424,-0.7421682,-2229,-0.682464075
2023-10-26 13:40:55.862,63038,194,7,-2308,-0.7066519,-2100,-0.6429675
2023-10-26 13:40:55.862,63039,150,0,-1568,-0.4800824,-2078,-0.63623165
2023-10-26 13:40:55.862,63040,193,6,-1715,-0.525090125,-2049,-0.627352575
2023-10-26 13:40:55.862,63041,151,0,-2548,-0.7801339,-2013,-0.616330275
2023-10-26 13:40:55.862,63042,196,9,-2367,-0.724716225,-2145,-0.656745375
2023-10-26 13:40:55.862,63043,151,0,-1709,-0.523253075,-2273,-0.695935775
2023-10-26 13:40:55.862,63044,195,7,-1576,-0.4825318,-2245,-0.687362875
2023-10-26 13:40:55.862,63045,153,0,-2326,-0.71216305,-2164,-0.6625627
2023-10-26 13:40:55.892,63046,194,9,-2348,-0.7188989,-2119,-0.648784825
2023-10-26 13:40:55.892,63047,152,0,-1664,-0.5094752,-2077,-0.635925475
2023-10-26 13:40:55.892,63048,195,9,-1755,-0.537337125,-2046,-0.62643405
2023-10-26 13:40:55.892,63049,153,0,-2487,-0.761457225,-2021,-0.618779675
2023-10-26 13:40:55.892,63050,196,11,-2326,-0.71216305,-2017,-0.617554975
2023-10-26 13:40:55.892,63051,154,0,-1619,-0.495697325,-2043,-0.625515525
2023-10-26 13:40:55.922,63052,195,10,-1590,-0.48681825,-2070,-0.63378225
2023-10-26 13:40:55.922,63053,153,0,-2528,-0.7740104,-2068,-0.6331699
2023-10-26 13:40:55.922,63054,195,13,-2385,-0.730227375,-2050,-0.62765875
2023-10-26 13:40:55.922,63055,154,0,-1512,-0.4629366,-2035,-0.623066125
2023-10-26 13:40:55.922,63056,197,10,-1888,-0.5780584,-2019,-0.618167325
2023-10-26 13:40:55.922,63057,154,0,-2662,-0.81503785,-1997,-0.611431475
2023-10-26 13:40:55.922,63058,197,10,-2420,-0.7409435,-1989,-0.608982075
2023-10-26 13:40:55.962,63059,154,0,-1650,-0.50518875,-2011,-0.615717925
2023-10-26 13:40:55.962,63060,196,11,-1942,-0.59459185,-2041,-0.624903175
2023-10-26 13:40:55.962,63061,155,0,-2715,-0.831265125,-2048,-0.6270464
2023-10-26 13:40:55.962,63062,198,11,-2382,-0.72930885,-2041,-0.624903175
2023-10-26 13:40:55.962,63063,155,0,-1870,-0.57254725,-2039,-0.624290825
2023-10-26 13:40:55.962,63064,197,12,-2194,-0.67174795,-2037,-0.623678475
2023-10-26 13:40:55.962,63065,156,0,-2595,-0.794524125,-2026,-0.62031055
2023-10-26 13:40:55.992,63066,197,13,-2640,-0.808302,-2020,-0.6184735
2023-10-26 13:40:55.992,63067,155,0,-2167,-0.663481225,-2031,-0.621841425
2023-10-26 13:40:55.992,63068,196,12,-2139,-0.654908325,-2041,-0.624903175
2023-10-26 13:40:55.992,63069,157,0,-2998,-0.91791265,-2035,-0.623066125
2023-10-26 13:40:55.992,63070,199,13,-2847,-0.871680225,-2026,-0.62031055
2023-10-26 13:40:56.022,63071,154,0,-2089,-0.639599575,-2032,-0.6221476
2023-10-26 13:40:56.022,63072,199,15,-2344,-0.7176742,-2040,-0.624597
2023-10-26 13:40:56.022,63073,153,0,-3085,-0.944549875,-2038,-0.62398465
2023-10-26 13:40:56.022,63074,200,11,-3082,-0.94363135,-2038,-0.62398465
2023-10-26 13:40:56.022,63075,157,0,-2277,-0.697160475,-2050,-0.62765875
2023-10-26 13:40:56.022,63076,197,13,-2544,-0.7789092,-2062,-0.63133285
2023-10-26 13:40:56.022,63077,156,0,-3111,-0.952510425,-2067,-0.632863725
2023-10-26 13:40:56.022,63078,201,13,-2974,-0.91056445,-2078,-0.63623165
2023-10-26 13:40:56.052,63079,156,0,-2571,-0.787175925,-2105,-0.644498375
2023-10-26 13:40:56.052,63080,199,14,-2496,-0.7642128,-2136,-0.6539898
2023-10-26 13:40:56.052,63081,157,0,-3011,-0.921892925,-2152,-0.6588886
2023-10-26 13:40:56.052,63082,198,15,-3317,-1.015582475,-2164,-0.6625627
2023-10-26 13:40:56.052,63083,155,0,-2620,-0.8021785,-2189,-0.670217075
2023-10-26 13:40:56.052,63084,199,15,-2577,-0.789012975,-2220,-0.6797085
2023-10-26 13:40:56.082,63085,158,0,-3184,-0.9748612,-2242,-0.68644435
2023-10-26 13:40:56.082,63086,199,14,-3035,-0.929241125,-2271,-0.695323425
2023-10-26 13:40:56.082,63087,158,0,-2495,-0.763906625,-2318,-0.70971365
2023-10-26 13:40:56.082,63088,200,16,-2433,-0.744923775,-2364,-0.7237977
2023-10-26 13:40:56.082,63089,157,0,-3234,-0.99016995,-2393,-0.732676775
2023-10-26 13:40:56.112,63090,203,15,-3272,-1.0018046,-2420,-0.7409435
2023-10-26 13:40:56.112,63091,157,0,-2551,-0.781052425,-2461,-0.753496675
2023-10-26 13:40:56.112,63092,203,18,-2596,-0.7948303,-2501,-0.765743675
2023-10-26 13:40:56.112,63093,157,0,-3180,-0.9736365,-2534,-0.77584745
2023-10-26 13:40:56.112,63094,202,15,-3055,-0.935364625,-2569,-0.786563575
2023-10-26 13:40:56.112,63095,156,0,-2557,-0.782889475,-2615,-0.800647625
2023-10-26 13:40:56.112,63096,202,16,-2469,-0.755946075,-2660,-0.8144255
2023-10-26 13:40:56.142,63097,158,0,-3194,-0.97792295,-2686,-0.82238605
2023-10-26 13:40:56.142,63098,204,16,-3123,-0.956184525,-2703,-0.827591025
2023-10-26 13:40:56.142,63099,157,0,-2542,-0.77829685,-2731,-0.836163925
2023-10-26 13:40:56.142,63100,202,17,-2500,-0.7654375,-2762,-0.84565535
2023-10-26 13:40:56.142,63101,158,0,-3178,-0.97302415,-2779,-0.850860325
2023-10-26 13:40:56.142,63102,203,17,-3067,-0.939038725,-2792,-0.8548406
2023-10-26 13:40:56.172,63103,157,0,-2239,-0.685525825,-2815,-0.861882625
2023-10-26 13:40:56.172,63104,203,17,-2360,-0.722573,-2837,-0.868618475
2023-10-26 13:40:56.172,63105,158,0,-3023,-0.925567025,-2842,-0.87014935
2023-10-26 13:40:56.172,63106,205,19,-2972,-0.9099521,-2842,-0.87014935
2023-10-26 13:40:56.212,63107,158,0,-2314,-0.70848895,-2851,-0.872904925
2023-10-26 13:40:56.212,63108,205,18,-2366,-0.72441005,-2860,-0.8756605
2023-10-26 13:40:56.212,63109,158,0,-2923,-0.894949525,-2858,-0.87504815
2023-10-26 13:40:56.212,63110,204,19,-2829,-0.866169075,-2854,-0.87382345
2023-10-26 13:40:56.212,63111,161,0,-2335,-0.714918625,-2859,-0.875354325
2023-10-26 13:40:56.212,63112,204,19,-2348,-0.7188989,-2867,-0.877803725
2023-10-26 13:40:56.242,63113,159,0,-3005,-0.920055875,-2864,-0.8768852
2023-10-26 13:40:56.242,63114,204,18,-3283,-1.005172525,-2857,-0.874741975
2023-10-26 13:40:56.242,63115,159,0,-2424,-0.7421682,-2860,-0.8756605
2023-10-26 13:40:56.242,63116,204,19,-2251,-0.689199925,-2863,-0.876579025
2023-10-26 13:40:56.242,63117,157,0,-3173,-0.971493275,-2853,-0.873517275
2023-10-26 13:40:56.242,63118,206,20,-3168,-0.9699624,-2842,-0.87014935
2023-10-26 13:40:56.272,63119,159,0,-2346,-0.71828655,-2842,-0.87014935
2023-10-26 13:40:56.272,63120,206,19,-2331,-0.713693925,-2843,-0.870455525
2023-10-26 13:40:56.272,63121,157,0,-3123,-0.956184525,-2829,-0.866169075
2023-10-26 13:40:56.272,63122,206,20,-3333,-1.020481275,-2810,-0.86035175
2023-10-26 13:40:56.272,63123,159,0,-2453,-0.751047275,-2798,-0.85667765
2023-10-26 13:40:56.272,63124,206,20,-2304,-0.7054272,-2784,-0.8523912
2023-10-26 13:40:56.272,63125,159,0,-3179,-0.973330325,-2756,-0.8438183
2023-10-26 13:40:56.302,63126,207,19,-3034,-0.92893495,-2728,-0.8352454
2023-10-26 13:40:56.302,63127,160,0,-2420,-0.7409435,-2713,-0.830652775
2023-10-26 13:40:56.302,63128,208,19,-2566,-0.78564505,-2704,-0.8278972
2023-10-26 13:40:56.302,63129,158,0,-3164,-0.9687377,-2685,-0.822079875
2023-10-26 13:40:56.302,63130,210,22,-2937,-0.899235975,-2667,-0.816568725
2023-10-26 13:40:56.302,63131,157,0,-2381,-0.729002675,-2667,-0.816568725
2023-10-26 13:40:56.302,63132,207,22,-2513,-0.769417775,-2673,-0.818405775
2023-10-26 13:40:56.332,63133,157,0,-3084,-0.9442437,-2667,-0.816568725
2023-10-26 13:40:56.332,63134,209,23,-2985,-0.913932375,-2664,-0.8156502
2023-10-26 13:40:56.332,63135,157,0,-2309,-0.706958075,-2681,-0.820855175
2023-10-26 13:40:56.332,63136,210,21,-2544,-0.7789092,-2703,-0.827591025
2023-10-26 13:40:56.332,63137,154,0,-3363,-1.029666525,-2713,-0.830652775
2023-10-26 13:40:56.332,63138,210,23,-3091,-0.946386925,-2722,-0.83340835
2023-10-26 13:40:56.362,63139,158,0,-2315,-0.708795125,-2744,-0.8401442
2023-10-26 13:40:56.362,63140,210,22,-2287,-0.700222225,-2765,-0.846573875
2023-10-26 13:40:56.362,63141,156,0,-3027,-0.926791725,-2767,-0.847186225
2023-10-26 13:40:56.362,63142,211,22,-2909,-0.890663075,-2764,-0.8462677
2023-10-26 13:40:56.362,63143,153,0,-2287,-0.700222225,-2772,-0.8487171
2023-10-26 13:40:56.362,63144,211,22,-2383,-0.729615025,-2786,-0.85300355
2023-10-26 13:40:56.362,63145,156,0,-3202,-0.98037235,-2788,-0.8536159
2023-10-26 13:40:56.392,63146,210,22,-3066,-0.93873255,-2784,-0.8523912
2023-10-26 13:40:56.392,63147,155,0,-2463,-0.754109025,-2786,-0.85300355
2023-10-26 13:40:56.392,63148,211,24,-2526,-0.77339805,-2790,-0.85422825
2023-10-26 13:40:56.392,63149,154,0,-3026,-0.92648555,-2783,-0.852085025
2023-10-26 13:40:56.392,63150,215,23,-2933,-0.898011275,-2772,-0.8487171
2023-10-26 13:40:56.392,63151,153,0,-2260,-0.6919555,-2772,-0.8487171
2023-10-26 13:40:56.422,63152,214,23,-2263,-0.692874025,-2775,-0.849635625
2023-10-26 13:40:56.422,63153,154,0,-3055,-0.935364625,-2769,-0.847798575
2023-10-26 13:40:56.422,63154,215,24,-3146,-0.96322655,-2764,-0.8462677
2023-10-26 13:40:56.422,63155,152,0,-2306,-0.70603955,-2772,-0.8487171
2023-10-26 13:40:56.422,63156,215,24,-2017,-0.617554975,-2775,-0.849635625
2023-10-26 13:40:56.457,63157,149,0,-2887,-0.883927225,-2764,-0.8462677
2023-10-26 13:40:56.457,63158,216,23,-2791,-0.854534425,-2754,-0.84320595
2023-10-26 13:40:56.457,63159,149,0,-2135,-0.653683625,-2757,-0.844124475
2023-10-26 13:40:56.457,63160,217,23,-2346,-0.71828655,-2757,-0.844124475
2023-10-26 13:40:56.457,63161,152,0,-3117,-0.954347475,-2743,-0.839838025
2023-10-26 13:40:56.457,63162,217,24,-2956,-0.9050533,-2729,-0.835551575
2023-10-26 13:40:56.457,63163,151,0,-2327,-0.712469225,-2731,-0.836163925
2023-10-26 13:40:56.488,63164,218,24,-2365,-0.724103875,-2735,-0.837388625
2023-10-26 13:40:56.488,63165,148,0,-3116,-0.9540413,-2727,-0.834939225
2023-10-26 13:40:56.488,63166,218,25,-3111,-0.952510425,-2719,-0.832489825
2023-10-26 13:40:56.488,63167,149,0,-2506,-0.76727455,-2724,-0.8340207
2023-10-26 13:40:56.488,63168,221,23,-2343,-0.717368025,-2731,-0.836163925
2023-10-26 13:40:56.488,63169,148,0,-2888,-0.8842334,-2721,-0.833102175
2023-10-26 13:40:56.525,63170,221,26,-3044,-0.9319967,-2710,-0.82973425
2023-10-26 13:40:56.525,63171,147,0,-2387,-0.730839725,-2714,-0.83095895
2023-10-26 13:40:56.525,63172,220,26,-2254,-0.69011845,-2718,-0.83218365
2023-10-26 13:40:56.525,63173,146,0,-3099,-0.948836325,-2705,-0.828203375
2023-10-26 13:40:56.525,63174,218,25,-3021,-0.924954675,-2686,-0.82238605
2023-10-26 13:40:56.561,63175,145,0,-2200,-0.673585,-2676,-0.8193243
2023-10-26 13:40:56.561,63176,222,26,-2066,-0.63255755,-2663,-0.815344025
2023-10-26 13:40:56.561,63177,145,0,-2910,-0.89096925,-2638,-0.80768965
2023-10-26 13:40:56.583,63178,221,25,-2836,-0.8683123,-2613,-0.800035275
2023-10-26 13:40:56.583,63179,145,0,-1708,-0.5229469,-2606,-0.79789205
2023-10-26 13:40:56.583,63180,220,25,-1311,-0.401395425,-2605,-0.797585875
2023-10-26 13:40:56.583,63181,145,0,-1933,-0.591836275,-2598,-0.79544265
2023-10-26 13:40:56.583,63182,221,24,-2485,-0.760844875,-2596,-0.7948303
2023-10-26 13:40:56.583,63183,144,0,-2780,-0.8511665,-2615,-0.800647625
2023-10-26 13:40:56.616,63184,223,26,-3190,-0.97669825,-2644,-0.8095267
2023-10-26 13:40:56.616,63185,144,0,-4045,-1.238477875,-2660,-0.8144255
2023-10-26 13:40:56.616,63186,221,28,-3908,-1.1965319,-2668,-0.8168749
2023-10-26 13:40:56.616,63187,142,0,-2679,-0.820242825,-2685,-0.822079875
2023-10-26 13:40:56.616,63188,221,27,-2240,-0.685832,-2701,-0.826978675
2023-10-26 13:40:56.616,63189,142,0,-3086,-0.94485605,-2702,-0.82728485
2023-10-26 13:40:56.616,63190,224,26,-2841,-0.869843175,-2703,-0.827591025
2023-10-26 13:40:56.616,63191,143,0,-1800,-0.551115,-2716,-0.8315713
2023-10-26 13:40:56.644,63192,223,28,-1798,-0.55050265,-2723,-0.833714525
2023-10-26 13:40:56.644,63193,140,0,-2963,-0.907196525,-2707,-0.828815725
2023-10-26 13:40:56.644,63194,223,28,-2931,-0.897398925,-2680,-0.820549
2023-10-26 13:40:56.644,63195,140,0,-2123,-0.650009525,-2659,-0.814119325
2023-10-26 13:40:56.644,63196,222,29,-1871,-0.572853425,-2631,-0.805546425
2023-10-26 13:40:56.644,63197,141,0,-2859,-0.875354325,-2576,-0.7887068
2023-10-26 13:40:56.644,63198,222,30,-2920,-0.894031,-2418,-0.74033115
2023-10-26 13:40:56.676,63199,139,0,-2113,-0.646947775,-2317,-0.709407475
2023-10-26 13:40:56.676,63200,224,29,-1874,-0.57377195,-2347,-0.718592725
2023-10-26 13:40:56.676,63201,140,0,-2692,-0.8242231,-2421,-0.741249675
2023-10-26 13:40:56.676,63202,223,29,-2905,-0.889438375,-2583,-0.790850025
2023-10-26 13:40:56.676,63203,140,0,-2145,-0.656745375,-2936,-0.8989298
2023-10-26 13:40:56.676,63204,222,29,-1977,-0.605307975,-3085,-0.944549875
2023-10-26 13:40:56.708,63205,138,0,-2610,-0.79911675,-3079,-0.942712825
2023-10-26 13:40:56.708,63206,222,30,-2653,-0.812282275,-3133,-0.959246275
2023-10-26 13:40:56.708,63207,138,0,-2076,-0.6356193,-3103,-0.950061025
2023-10-26 13:40:56.708,63208,222,30,-1949,-0.596735075,-2806,-0.85912705
2023-10-26 13:40:56.708,63209,138,0,-2623,-0.803097025,-2485,-0.760844875
2023-10-26 13:40:56.708,63210,220,31,-2843,-0.870455525,-2386,-0.73053355
2023-10-26 13:40:56.708,63211,137,0,-2033,-0.622453775,-2403,-0.735738525
2023-10-26 13:40:56.748,63212,222,31,-1783,-0.545910025,-2358,-0.72196065
2023-10-26 13:40:56.748,63213,139,0,-2505,-0.766968375,-2341,-0.716755675
2023-10-26 13:40:56.748,63214,222,32,-2490,-0.76237575,-2505,-0.766968375
2023-10-26 13:40:56.748,63215,138,0,-1836,-0.5621373,-2669,-0.817181075
2023-10-26 13:40:56.748,63216,222,32,-1935,-0.592448625,-2622,-0.80279085
2023-10-26 13:40:56.748,63217,136,0,-2591,-0.793299425,-2476,-0.7580893
2023-10-26 13:40:56.748,63218,221,31,-2606,-0.79789205,-2427,-0.743086725
2023-10-26 13:40:56.748,63219,137,0,-1758,-0.53825565,-2388,-0.7311459
2023-10-26 13:40:56.748,63220,223,31,-1608,-0.4923294,-2385,-0.730227375
2023-10-26 13:40:56.748,63221,136,0,-2466,-0.75502755,-2391,-0.732064425
2023-10-26 13:40:56.778,63222,221,31,-2641,-0.808608175,-2403,-0.735738525
2023-10-26 13:40:56.778,63223,136,0,-1738,-0.53213215,-2427,-0.743086725
2023-10-26 13:40:56.778,63224,221,31,-1641,-0.502433175,-2447,-0.749210225
2023-10-26 13:40:56.778,63225,136,0,-2452,-0.7507411,-2436,-0.7458423
2023-10-26 13:40:56.778,63226,220,33,-2534,-0.77584745,-2404,-0.7360447
2023-10-26 13:40:56.778,63227,134,0,-1676,-0.5131493,-2381,-0.729002675
2023-10-26 13:40:56.778,63228,220,34,-1377,-0.421602975,-2370,-0.72563475
2023-10-26 13:40:56.778,63229,136,0,-2407,-0.736963225,-2355,-0.721042125
2023-10-26 13:40:56.778,63230,218,33,-2764,-0.8462677,-2340,-0.7164495
2023-10-26 13:40:56.778,63231,136,0,-2010,-0.61541175,-2338,-0.71583715
2023-10-26 13:40:56.816,63232,221,32,-1721,-0.526927175,-2336,-0.7152248
2023-10-26 13:40:56.816,63233,133,0,-2300,-0.7042025,-2319,-0.710019825
2023-10-26 13:40:56.816,63234,220,36,-2372,-0.7262471,-2295,-0.702671625
2023-10-26 13:40:56.816,63235,136,0,-1888,-0.5780584,-2280,-0.698079
2023-10-26 13:40:56.816,63236,217,33,-1710,-0.52355925,-2265,-0.693486375
2023-10-26 13:40:56.816,63237,136,0,-2366,-0.72441005,-2238,-0.68521965
2023-10-26 13:40:56.846,63238,217,35,-2449,-0.749822575,-2211,-0.676952925
2023-10-26 13:40:56.846,63239,135,0,-1962,-0.60071535,-2202,-0.67419735
2023-10-26 13:40:56.846,63240,218,31,-1859,-0.569179325,-2200,-0.673585
2023-10-26 13:40:56.846,63241,133,0,-2469,-0.755946075,-2184,-0.6686862
2023-10-26 13:40:56.846,63242,216,35,-2710,-0.82973425,-2164,-0.6625627
2023-10-26 13:40:56.877,63243,135,0,-2048,-0.6270464,-2156,-0.6601133
2023-10-26 13:40:56.877,63244,217,36,-1722,-0.52723335,-2148,-0.6576639
2023-10-26 13:40:56.877,63245,133,0,-2361,-0.722879175,-2122,-0.64970335
2023-10-26 13:40:56.877,63246,217,36,-2801,-0.857596175,-2095,-0.641436625
2023-10-26 13:40:56.916,63247,132,0,-2192,-0.6711356,-2093,-0.640824275
2023-10-26 13:40:56.916,63248,217,36,-2095,-0.641436625,-2106,-0.64480455
2023-10-26 13:40:56.916,63249,133,0,-2688,-0.8229984,-2106,-0.64480455
2023-10-26 13:40:56.916,63250,215,36,-2775,-0.849635625,-2095,-0.641436625
2023-10-26 13:40:56.916,63251,132,0,-2188,-0.6699109,-2096,-0.6417428
2023-10-26 13:40:56.916,63252,216,37,-1749,-0.535500075,-2105,-0.644498375
2023-10-26 13:40:56.916,63253,132,0,-2675,-0.819018125,-2105,-0.644498375
2023-10-26 13:40:56.946,63254,214,34,-2980,-0.9124015,-2098,-0.64235515
2023-10-26 13:40:56.946,63255,132,0,-2376,-0.7274718,-2104,-0.6441922
2023-10-26 13:40:56.946,63256,216,37,-1960,-0.600103,-2119,-0.648784825
2023-10-26 13:40:56.946,63257,130,0,-2787,-0.853309725,-2125,-0.650621875
2023-10-26 13:40:56.946,63258,215,40,-2850,-0.87259875,-2123,-0.650009525
2023-10-26 13:40:56.946,63259,130,0,-2114,-0.64725395,-2135,-0.653683625
2023-10-26 13:40:56.946,63260,213,38,-2047,-0.626740225,-2155,-0.659807125
2023-10-26 13:40:56.946,63261,131,0,-2876,-0.8805593,-2166,-0.66317505
2023-10-26 13:40:56.946,63262,213,38,-2740,-0.8389195,-2169,-0.664093575
2023-10-26 13:40:56.975,63263,129,0,-2011,-0.615717925,-2183,-0.668380025
2023-10-26 13:40:56.975,63264,214,39,-1674,-0.51253695,-2204,-0.6748097
2023-10-26 13:40:56.975,63265,130,0,-2817,-0.862494975,-2220,-0.6797085
2023-10-26 13:40:56.975,63266,212,39,-2886,-0.88362105,-2238,-0.68521965
2023-10-26 13:40:56.975,63267,129,0,-2239,-0.685525825,-2271,-0.695323425
2023-10-26 13:40:56.975,63268,213,41,-2095,-0.641436625,-2309,-0.706958075
2023-10-26 13:40:56.975,63269,129,0,-2954,-0.90444095,-2329,-0.713081575
2023-10-26 13:40:57.005,63270,211,41,-2665,-0.815956375,-2337,-0.715530975
2023-10-26 13:40:57.005,63271,128,0,-1975,-0.604695625,-2354,-0.72073595
2023-10-26 13:40:57.005,63272,212,42,-2071,-0.634088425,-2378,-0.72808415
2023-10-26 13:40:57.005,63273,126,0,-3192,-0.9773106,-2393,-0.732676775
2023-10-26 13:40:57.005,63274,208,41,-2864,-0.8768852,-2401,-0.735126175
2023-10-26 13:40:57.035,63275,128,0,-1911,-0.585100425,-2420,-0.7409435
2023-10-26 13:40:57.035,63276,210,42,-1904,-0.5829572,-2441,-0.747373175
2023-10-26 13:40:57.035,63277,125,0,-2905,-0.889438375,-2450,-0.75012875
2023-10-26 13:40:57.035,63278,210,45,-2958,-0.90566565,-2453,-0.751047275
2023-10-26 13:40:57.035,63279,125,0,-2239,-0.685525825,-2461,-0.753496675
2023-10-26 13:40:57.035,63280,210,43,-1948,-0.5964289,-2466,-0.75502755
2023-10-26 13:40:57.035,63281,126,0,-2986,-0.91423855,-2452,-0.7507411
2023-10-26 13:40:57.035,63282,208,44,-3154,-0.96567595,-2431,-0.744311425
2023-10-26 13:40:57.065,63283,126,0,-2137,-0.654295975,-2426,-0.74278055
2023-10-26 13:40:57.065,63284,209,46,-1889,-0.578364575,-2433,-0.744923775
2023-10-26 13:40:57.065,63285,125,0,-2875,-0.880253125,-2432,-0.7446176
2023-10-26 13:40:57.065,63286,207,48,-2894,-0.88607045,-2428,-0.7433929
2023-10-26 13:40:57.065,63287,124,0,-2250,-0.68889375,-2432,-0.7446176
2023-10-26 13:40:57.065,63288,209,45,-1904,-0.5829572,-2433,-0.744923775
2023-10-26 13:40:57.095,63289,123,0,-3158,-0.96690065,-2424,-0.7421682
2023-10-26 13:40:57.095,63290,209,46,-2962,-0.90689035,-2422,-0.74155585
2023-10-26 13:40:57.095,63291,122,0,-2338,-0.71583715,-2441,-0.747373175
2023-10-26 13:40:57.095,63292,206,47,-2097,-0.642048975,-2464,-0.7544152
2023-10-26 13:40:57.125,63293,123,0,-2873,-0.879640775,-2468,-0.7556399
2023-10-26 13:40:57.125,63294,205,48,-2912,-0.8915816,-2464,-0.7544152
2023-10-26 13:40:57.125,63295,122,0,-2264,-0.6931802,-2472,-0.7568646
2023-10-26 13:40:57.125,63296,206,48,-1947,-0.596122725,-2484,-0.7605387
2023-10-26 13:40:57.125,63297,122,0,-2877,-0.880865475,-2480,-0.759314
2023-10-26 13:40:57.125,63298,207,50,-2658,-0.81381315,-2477,-0.758395475
2023-10-26 13:40:57.125,63299,120,0,-1898,-0.58112015,-2495,-0.763906625
2023-10-26 13:40:57.165,63300,205,50,-1610,-0.49294175,-2512,-0.7691116
2023-10-26 13:40:57.165,63301,122,0,-2416,-0.7397188,-2504,-0.7666622
2023-10-26 13:40:57.165,63302,206,50,-2368,-0.7250224,-2491,-0.762681925
2023-10-26 13:40:57.165,63303,121,0,-1534,-0.46967245,-2500,-0.7654375
2023-10-26 13:40:57.165,63304,204,51,-991,-0.303419425,-2520,-0.771561
2023-10-26 13:40:57.165,63305,119,0,-1822,-0.55785085,-2523,-0.772479525
2023-10-26 13:40:57.195,63306,206,51,-1990,-0.60928825,-2520,-0.771561
2023-10-26 13:40:57.195,63307,123,0,-1265,-0.387311375,-2528,-0.7740104
2023-10-26 13:40:57.195,63308,205,50,-851,-0.260554925,-2542,-0.77829685
2023-10-26 13:40:57.195,63309,120,0,-1915,-0.586325125,-2541,-0.777990675
2023-10-26 13:40:57.195,63310,204,53,-1708,-0.5229469,-2534,-0.77584745
2023-10-26 13:40:57.195,63311,120,0,-979,-0.299745325,-2541,-0.777990675
2023-10-26 13:40:57.195,63312,206,54,-680,-0.208199,-2557,-0.782889475
2023-10-26 13:40:57.195,63313,120,0,-1615,-0.494472625,-2557,-0.782889475
2023-10-26 13:40:57.225,63314,204,52,-1265,-0.387311375,-2546,-0.77952155
2023-10-26 13:40:57.225,63315,119,0,-769,-0.235448575,-2542,-0.77829685
2023-10-26 13:40:57.225,63316,205,55,-461,-0.141146675,-2535,-0.776153625
2023-10-26 13:40:57.225,63317,119,0,-1137,-0.348120975,-2504,-0.7666622
2023-10-26 13:40:57.225,63318,203,50,-1161,-0.355469175,-2461,-0.753496675
2023-10-26 13:40:57.225,63319,119,0,-417,-0.127674975,-2425,-0.742474375
2023-10-26 13:40:57.225,63320,203,55,58,0.01775815,-2381,-0.729002675
2023-10-26 13:40:57.225,63321,118,0,-1136,-0.3478148,-2135,-0.653683625
2023-10-26 13:40:57.225,63322,203,54,-1364,-0.4176227,-1959,-0.599796825
2023-10-26 13:40:57.255,63323,118,0,-622,-0.19044085,-1904,-0.5829572
2023-10-26 13:40:57.255,63324,205,54,-377,-0.115427975,-1779,-0.544685325
2023-10-26 13:40:57.255,63325,117,0,-1257,-0.384861975,-1621,-0.496309675
2023-10-26 13:40:57.255,63326,204,52,-1449,-0.443647575,-1608,-0.4923294
2023-10-26 13:40:57.255,63327,118,0,-1017,-0.311379975,-1634,-0.50028995
2023-10-26 13:40:57.285,63328,203,54,-508,-0.1555369,-1562,-0.47824535
2023-10-26 13:40:57.285,63329,117,0,-1490,-0.45620075,-1471,-0.450383425
2023-10-26 13:40:57.285,63330,203,54,-1900,-0.5817325,-1503,-0.460181025
2023-10-26 13:40:57.285,63331,117,0,-898,-0.27494515,-1461,-0.447321675
2023-10-26 13:40:57.285,63332,206,54,-394,-0.12063295,-1403,-0.429563525
2023-10-26 13:40:57.285,63333,117,0,-1663,-0.509169025,-1339,-0.409968325
2023-10-26 13:40:57.315,63334,203,55,-1618,-0.49539115,-1269,-0.388536075
2023-10-26 13:40:57.315,63335,116,0,-929,-0.284436575,-1210,-0.37047175
2023-10-26 13:40:57.315,63336,205,54,-452,-0.1383911,-1126,-0.34475305
2023-10-26 13:40:57.315,63337,116,0,-1388,-0.4249709,-943,-0.288723025
2023-10-26 13:40:57.315,63338,203,54,-1285,-0.393434875,-916,-0.2804563
2023-10-26 13:40:57.315,63339,115,0,-768,-0.2351424,-944,-0.2890292
2023-10-26 13:40:57.345,63340,205,55,-611,-0.187072925,-916,-0.2804563
2023-10-26 13:40:57.345,63341,114,0,-1593,-0.487736775,-869,-0.266066075
2023-10-26 13:40:57.345,63342,203,55,-1752,-0.5364186,-827,-0.253206725
2023-10-26 13:40:57.345,63343,116,0,-1190,-0.36434825,-813,-0.248920275
2023-10-26 13:40:57.345,63344,203,54,-620,-0.1898285,-822,-0.25167585
2023-10-26 13:40:57.375,63345,113,0,-1428,-0.4372179,-833,-0.255043775
2023-10-26 13:40:57.375,63346,203,54,-1583,-0.484675025,-852,-0.2608611
2023-10-26 13:40:57.375,63347,116,0,-1119,-0.342609825,-899,-0.275251325
2023-10-26 13:40:57.375,63348,203,53,-762,-0.23330535,-958,-0.29331565
2023-10-26 13:40:57.375,63349,116,0,-1817,-0.556319975,-998,-0.30556265
2023-10-26 13:40:57.375,63350,203,52,-1768,-0.5413174,-1028,-0.3147479
2023-10-26 13:40:57.415,63351,114,0,-963,-0.294846525,-1069,-0.327301075
2023-10-26 13:40:57.415,63352,202,54,-468,-0.1432899,-1114,-0.34107895
2023-10-26 13:40:57.415,63353,114,0,-1545,-0.473040375,-1139,-0.348733325
2023-10-26 13:40:57.415,63354,204,52,-1534,-0.46967245,-1147,-0.351182725
2023-10-26 13:40:57.415,63355,114,0,-712,-0.2179966,-1152,-0.3527136
2023-10-26 13:40:57.415,63356,203,53,22,0.00673585,-1154,-0.35332595
2023-10-26 13:40:57.445,63357,113,0,-769,-0.235448575,-1138,-0.34842715
2023-10-26 13:40:57.445,63358,204,52,-1492,-0.4568131,-1114,-0.34107895
2023-10-26 13:40:57.445,63359,113,0,-1540,-0.4715095,-1111,-0.340160425
2023-10-26 13:40:57.445,63360,201,52,-1717,-0.525702475,-1124,-0.3441407
2023-10-26 13:40:57.445,63361,113,0,-3079,-0.942712825,-1127,-0.345059225
2023-10-26 13:40:57.475,63362,203,51,-2859,-0.875354325,-1120,-0.342916
2023-10-26 13:40:57.475,63363,114,0,-1834,-0.56152495,-1129,-0.345671575
2023-10-26 13:40:57.475,63364,202,51,-1181,-0.361592675,-1151,-0.352407425
2023-10-26 13:40:57.475,63365,112,0,-2057,-0.629801975,-1167,-0.357306225
2023-10-26 13:40:57.475,63366,200,51,-2133,-0.653071275,-1184,-0.3625112
2023-10-26 13:40:57.475,63367,113,0,-1010,-0.30923675,-1215,-0.372002625
2023-10-26 13:40:57.505,63368,200,52,-496,-0.1518628,-1246,-0.38149405
2023-10-26 13:40:57.505,63369,111,0,-2131,-0.652458925,-1254,-0.38394345
2023-10-26 13:40:57.505,63370,201,49,-2081,-0.637150175,-1249,-0.382412575
2023-10-26 13:40:57.505,63371,112,0,-1205,-0.368940875,-1252,-0.3833311
2023-10-26 13:40:57.505,63372,201,49,-752,-0.2302436,-1254,-0.38394345
2023-10-26 13:40:57.505,63373,113,0,-2149,-0.657970075,-1226,-0.37537055
2023-10-26 13:40:57.535,63374,199,48,-2072,-0.6343946,-1173,-0.359143275
2023-10-26 13:40:57.535,63375,113,0,-1362,-0.41701035,-1130,-0.34597775
2023-10-26 13:40:57.535,63376,199,50,-775,-0.237285625,-1109,-0.339548075
2023-10-26 13:40:57.535,63377,114,0,-2081,-0.637150175,-1107,-0.338935725
2023-10-26 13:40:57.565,63378,198,48,-2064,-0.6319452,-1295,-0.396496625
2023-10-26 13:40:57.565,63379,113,0,-1324,-0.4053757,-1833,-0.561218775
2023-10-26 13:40:57.565,63380,197,49,-682,-0.20881135,-2055,-0.629189625
2023-10-26 13:40:57.565,63381,113,0,-1770,-0.54192975,-2055,-0.629189625
2023-10-26 13:40:57.565,63382,197,46,-1868,-0.5719349,-2108,-0.6454169
2023-10-26 13:40:57.565,63383,114,0,-1287,-0.394047225,-2137,-0.654295975
2023-10-26 13:40:57.565,63384,196,48,-671,-0.205443425,-1870,-0.57254725
2023-10-26 13:40:57.595,63385,113,0,-1649,-0.504882575,-1509,-0.462018075
2023-10-26 13:40:57.595,63386,196,47,-2135,-0.653683625,-1421,-0.435074675
2023-10-26 13:40:57.595,63387,114,0,-1353,-0.414254775,-1495,-0.457731625
2023-10-26 13:40:57.595,63388,195,45,-669,-0.204831075,-1468,-0.4494649
2023-10-26 13:40:57.595,63389,114,0,-1873,-0.573465775,-1412,-0.4323191
2023-10-26 13:40:57.595,63390,195,45,-1993,-0.610206775,-1562,-0.47824535
2023-10-26 13:40:57.625,63391,114,0,-1088,-0.3331184,-1744,-0.5339692
2023-10-26 13:40:57.625,63392,195,46,-551,-0.168702425,-1717,-0.525702475
2023-10-26 13:40:57.625,63393,114,0,-1852,-0.5670361,-1582,-0.48436885
2023-10-26 13:40:57.625,63394,193,45,-2054,-0.62888345,-1523,-0.466304525
2023-10-26 13:40:57.665,63395,115,0,-1397,-0.427726475,-1495,-0.457731625
2023-10-26 13:40:57.665,63396,192,45,-642,-0.19656435,-1501,-0.459568675
2023-10-26 13:40:57.665,63397,115,0,-1855,-0.567954625,-1507,-0.461405725
2023-10-26 13:40:57.665,63398,192,47,-1954,-0.59826595,-1514,-0.46354895
2023-10-26 13:40:57.665,63399,118,0,-1366,-0.41823505,-1538,-0.47089715
2023-10-26 13:40:57.665,63400,193,45,-839,-0.256880825,-1563,-0.478551525
2023-10-26 13:40:57.665,63401,118,0,-2056,-0.6294958,-1551,-0.474877425
2023-10-26 13:40:57.695,63402,191,44,-2128,-0.6515404,-1511,-0.462630425
2023-10-26 13:40:57.695,63403,117,0,-1310,-0.40108925,-1482,-0.45375135
2023-10-26 13:40:57.695,63404,190,44,-883,-0.270352525,-1470,-0.45007725
2023-10-26 13:40:57.695,63405,119,0,-2076,-0.6356193,-1451,-0.444259925
2023-10-26 13:40:57.695,63406,191,45,-2015,-0.616942625,-1433,-0.438748775
2023-10-26 13:40:57.695,63407,119,0,-1333,-0.408131275,-1438,-0.44027965
2023-10-26 13:40:57.695,63408,188,42,-918,-0.28106865,-1453,-0.444872275
2023-10-26 13:40:57.695,63409,118,0,-1817,-0.556319975,-1446,-0.44272905
2023-10-26 13:40:57.695,63410,189,42,-2414,-0.73910645,-1427,-0.436911725
2023-10-26 13:40:57.695,63411,119,0,-1551,-0.474877425,-1423,-0.435687025
2023-10-26 13:40:57.725,63412,187,42,-883,-0.270352525,-1433,-0.438748775
2023-10-26 13:40:57.725,63413,120,0,-2151,-0.658582425,-1432,-0.4384426
2023-10-26 13:40:57.725,63414,187,42,-2402,-0.73543235,-1424,-0.4359932
2023-10-26 13:40:57.725,63415,121,0,-1957,-0.599184475,-1433,-0.438748775
2023-10-26 13:40:57.725,63416,188,42,-1247,-0.381800225,-1454,-0.44517845
2023-10-26 13:40:57.725,63417,120,0,-2421,-0.741249675,-1461,-0.447321675
2023-10-26 13:40:57.725,63418,188,40,-2522,-0.77217335,-1458,-0.44640315
2023-10-26 13:40:57.725,63419,121,0,-1890,-0.57867075,-1472,-0.4506896
2023-10-26 13:40:57.755,63420,186,42,-1337,-0.409355975,-1496,-0.4580378
2023-10-26 13:40:57.755,63421,121,0,-2165,-0.662868875,-1506,-0.46109955
2023-10-26 13:40:57.755,63422,187,40,-2643,-0.809220525,-1508,-0.4617119
2023-10-26 13:40:57.755,63423,124,0,-1852,-0.5670361,-1525,-0.466916875
2023-10-26 13:40:57.755,63424,186,38,-1007,-0.308318225,-1554,-0.47579595
2023-10-26 13:40:57.755,63425,123,0,-2305,-0.705733375,-1567,-0.479776225
2023-10-26 13:40:57.785,63426,185,38,-2484,-0.7605387,-1568,-0.4800824
2023-10-26 13:40:57.785,63427,127,0,-1754,-0.53703095,-1582,-0.48436885
2023-10-26 13:40:57.785,63428,183,39,-1462,-0.44762785,-1604,-0.4911047
2023-10-26 13:40:57.785,63429,126,0,-2290,-0.70114075,-1606,-0.49171705
2023-10-26 13:40:57.785,63430,185,39,-2693,-0.824529275,-1600,-0.48988
2023-10-26 13:40:57.785,63431,125,0,-2071,-0.634088425,-1620,-0.4960035
2023-10-26 13:40:57.785,63432,183,38,-1305,-0.399558375,-1660,-0.5082505
2023-10-26 13:40:57.785,63433,126,0,-2163,-0.662256525,-1691,-0.517741925
2023-10-26 13:40:57.825,63434,183,39,-2406,-0.73665705,-1717,-0.525702475
2023-10-26 13:40:57.825,63435,126,0,-1715,-0.525090125,-1760,-0.538868
2023-10-26 13:40:57.825,63436,181,40,-1271,-0.389148425,-1815,-0.555707625
2023-10-26 13:40:57.825,63437,127,0,-2130,-0.65215275,-1853,-0.567342275
2023-10-26 13:40:57.825,63438,182,37,-2544,-0.7789092,-1876,-0.5743843
2023-10-26 13:40:57.825,63439,127,0,-1810,-0.55417675,-1911,-0.585100425
2023-10-26 13:40:57.825,63440,180,38,-1255,-0.384249625,-1955,-0.598572125
2023-10-26 13:40:57.855,63441,129,0,-2239,-0.685525825,-1977,-0.605307975
2023-10-26 13:40:57.855,63442,181,38,-2706,-0.82850955,-1980,-0.6062265
2023-10-26 13:40:57.855,63443,128,0,-1736,-0.5315198,-1988,-0.6086759
2023-10-26 13:40:57.855,63444,180,36,-918,-0.28106865,-1999,-0.612043825
2023-10-26 13:40:57.855,63445,130,0,-1833,-0.561218775,-1994,-0.61051295
2023-10-26 13:40:57.885,63446,181,34,-2307,-0.706345725,-1979,-0.605920325
2023-10-26 13:40:57.885,63447,130,0,-1951,-0.597347425,-1979,-0.605920325
2023-10-26 13:40:57.885,63448,179,36,-916,-0.2804563,-1994,-0.61051295
2023-10-26 13:40:57.885,63449,130,0,-1822,-0.55785085,-1998,-0.61173765
2023-10-26 13:40:57.885,63450,180,35,-2508,-0.7678869,-1990,-0.60928825
2023-10-26 13:40:57.885,63451,129,0,-1577,-0.482837975,-1993,-0.610206775
2023-10-26 13:40:57.885,63452,177,37,-1022,-0.31291085,-2009,-0.615105575
2023-10-26 13:40:57.885,63453,131,0,-2009,-0.615105575,-2010,-0.61541175
2023-10-26 13:40:57.925,63454,179,36,-2237,-0.684913475,-1996,-0.6111253
2023-10-26 13:40:57.925,63455,132,0,-1589,-0.486512075,-1992,-0.6099006
2023-10-26 13:40:57.925,63456,177,37,-1224,-0.3747582,-1995,-0.610819125
2023-10-26 13:40:57.925,63457,131,0,-2017,-0.617554975,-1983,-0.607145025
2023-10-26 13:40:57.925,63458,176,36,-2350,-0.71951125,-1962,-0.60071535
2023-10-26 13:40:57.925,63459,131,0,-1829,-0.559994075,-1958,-0.59949065
2023-10-26 13:40:57.955,63460,177,37,-1129,-0.345671575,-1964,-0.6013277
2023-10-26 13:40:57.955,63461,132,0,-2028,-0.6209229,-1952,-0.5976536
2023-10-26 13:40:57.955,63462,176,35,-2431,-0.744311425,-1922,-0.58846835
2023-10-26 13:40:57.955,63463,134,0,-1799,-0.550808825,-1904,-0.5829572
2023-10-26 13:40:57.955,63464,174,37,-1000,-0.306175,-1901,-0.582038675
2023-10-26 13:40:57.995,63465,132,0,-1991,-0.609594425,-1883,-0.576527525
2023-10-26 13:40:57.995,63466,174,36,-2308,-0.7066519,-1853,-0.567342275
2023-10-26 13:40:57.995,63467,131,0,-1784,-0.5462162,-1839,-0.563055825
2023-10-26 13:40:57.995,63468,174,36,-1151,-0.352407425,-1839,-0.563055825
2023-10-26 13:40:58.025,63469,135,0,-1875,-0.574078125,-1822,-0.55785085
2023-10-26 13:40:58.025,63470,177,38,-2336,-0.7152248,-1788,-0.5474409
2023-10-26 13:40:58.025,63471,134,0,-1806,-0.55295205,-1766,-0.54070505
2023-10-26 13:40:58.025,63472,174,36,-972,-0.2976021,-1760,-0.538868
2023-10-26 13:40:58.025,63473,133,0,-2143,-0.656133025,-1752,-0.5364186
2023-10-26 13:40:58.055,63474,173,35,-2539,-0.777378325,-1739,-0.532438325
2023-10-26 13:40:58.055,63475,133,0,-1551,-0.474877425,-1739,-0.532438325
2023-10-26 13:40:58.055,63476,172,35,-930,-0.28474275,-1758,-0.53825565
2023-10-26 13:40:58.055,63477,136,0,-2277,-0.697160475,-1772,-0.5425421
2023-10-26 13:40:58.055,63478,173,36,-2623,-0.803097025,-1774,-0.54315445
2023-10-26 13:40:58.055,63479,134,0,-1722,-0.52723335,-1787,-0.547134725
2023-10-26 13:40:58.055,63480,171,37,-1020,-0.3122985,-1809,-0.553870575
2023-10-26 13:40:58.055,63481,135,0,-2175,-0.665930625,-1813,-0.555095275
2023-10-26 13:40:58.095,63482,171,36,-2487,-0.761457225,-1804,-0.5523397
2023-10-26 13:40:58.095,63483,135,0,-1837,-0.562443475,-1808,-0.5535644
2023-10-26 13:40:58.095,63484,171,35,-1176,-0.3600618,-1823,-0.558157025
2023-10-26 13:40:58.095,63485,136,0,-2071,-0.634088425,-1826,-0.55907555
2023-10-26 13:40:58.095,63486,170,37,-2163,-0.662256525,-1815,-0.555707625
