Time, Sample Count, IR Count, Red Count, Raw ECG, Raw ECG (mV), Filtered ECG, Filtered ECG (mV)
2023-10-26 14:03:41.221,103227,153,0,-2726,-0.83463305,-3122,-0.95587835
2023-10-26 14:03:41.251,103228,247,58,-3208,-0.9822094,-3074,-0.94118195
2023-10-26 14:03:41.251,103229,155,0,-2848,-0.8719864,-2988,-0.9148509
2023-10-26 14:03:41.251,103230,247,58,-2948,-0.9026039,-2915,-0.892500125
2023-10-26 14:03:41.251,103231,153,0,-2897,-0.886988975,-2875,-0.880253125
2023-10-26 14:03:41.291,103232,247,58,-3152,-0.9650636,-2867,-0.877803725
2023-10-26 14:03:41.291,103233,153,0,-2769,-0.847798575,-2881,-0.882090175
2023-10-26 14:03:41.291,103234,248,56,-3074,-0.94118195,-2894,-0.88607045
2023-10-26 14:03:41.291,103235,152,0,-2706,-0.82850955,-2886,-0.88362105
2023-10-26 14:03:41.291,103236,247,55,-3424,-1.0483432,-2871,-0.879028425
2023-10-26 14:03:41.321,103237,152,0,-3152,-0.9650636,-2875,-0.880253125
2023-10-26 14:03:41.321,103238,246,58,-3152,-0.9650636,-2902,-0.88851985
2023-10-26 14:03:41.321,103239,151,0,-2948,-0.9026039,-2933,-0.898011275
2023-10-26 14:03:41.321,103240,245,57,-3567,-1.092126225,-2946,-0.90199155
2023-10-26 14:03:41.321,103241,150,0,-3031,-0.928016425,-2938,-0.89954215
2023-10-26 14:03:41.321,103242,244,56,-3102,-0.94975485,-2920,-0.894031
2023-10-26 14:03:41.321,103243,149,0,-3130,-0.95832775,-2904,-0.8891322
2023-10-26 14:03:41.321,103244,245,56,-3592,-1.0997806,-2902,-0.88851985
2023-10-26 14:03:41.351,103245,151,0,-3030,-0.92771025,-2928,-0.8964804
2023-10-26 14:03:41.351,103246,244,55,-3331,-1.019868925,-2976,-0.9111768
2023-10-26 14:03:41.351,103247,149,0,-3336,-1.0213998,-3015,-0.923117625
2023-10-26 14:03:41.351,103248,244,54,-3510,-1.07467425,-3019,-0.924342325
2023-10-26 14:03:41.351,103249,149,0,-2894,-0.88607045,-2990,-0.91546325
2023-10-26 14:03:41.351,103250,244,54,-2973,-0.910258275,-2947,-0.902297725
2023-10-26 14:03:41.351,103251,150,0,-2870,-0.87872225,-2916,-0.8928063
2023-10-26 14:03:41.351,103252,243,54,-2791,-0.854534425,-2915,-0.892500125
2023-10-26 14:03:41.381,103253,149,0,-2982,-0.91301385,-2948,-0.9026039
2023-10-26 14:03:41.381,103254,241,52,-3868,-1.1842849,-3004,-0.9197497
2023-10-26 14:03:41.381,103255,149,0,-3913,-1.198062775,-3052,-0.9344461
2023-10-26 14:03:41.381,103256,239,49,-4651,-1.424019925,-3069,-0.939651075
2023-10-26 14:03:41.381,103257,150,0,-4071,-1.246438425,-3056,-0.9356708
2023-10-26 14:03:41.381,103258,238,50,-3921,-1.200512175,-3032,-0.9283226
2023-10-26 14:03:41.381,103259,151,0,-3572,-1.0936571,-3017,-0.923729975
2023-10-26 14:03:41.411,103260,237,49,-3660,-1.1206005,-3035,-0.929241125
2023-10-26 14:03:41.411,103261,150,0,-2903,-0.888826025,-3090,-0.94608075
2023-10-26 14:03:41.411,103262,235,51,-2880,-0.881784,-3162,-0.96812535
2023-10-26 14:03:41.411,103263,152,0,-3033,-0.928628775,-3221,-0.986189675
2023-10-26 14:03:41.411,103264,233,48,-3568,-1.0924324,-3249,-0.994762575
2023-10-26 14:03:41.411,103265,154,0,-2958,-0.90566565,-3244,-0.9932317
2023-10-26 14:03:41.411,103266,232,49,-3142,-0.96200185,-3220,-0.9858835
2023-10-26 14:03:41.411,103267,155,0,-3115,-0.953735125,-3197,-0.978841475
2023-10-26 14:03:41.411,103268,231,45,-3222,-0.98649585,-3185,-0.975167375
2023-10-26 14:03:41.441,103269,156,0,-2940,-0.9001545,-3187,-0.975779725
2023-10-26 14:03:41.441,103270,231,46,-3252,-0.9956811,-3201,-0.980066175
2023-10-26 14:03:41.441,103271,157,0,-3395,-1.039464125,-3218,-0.98527115
2023-10-26 14:03:41.441,103272,228,43,-3279,-1.003947825,-3231,-0.989251425
2023-10-26 14:03:41.441,103273,160,0,-2883,-0.882702525,-3251,-0.995374925
2023-10-26 14:03:41.441,103274,226,43,-3055,-0.935364625,-3284,-1.0054787
2023-10-26 14:03:41.441,103275,159,0,-3166,-0.96935005,-3330,-1.01956275
2023-10-26 14:03:41.441,103276,227,43,-3171,-0.970880925,-3396,-1.0397703
2023-10-26 14:03:41.471,103277,162,0,-2725,-0.834326875,-3479,-1.065182825
2023-10-26 14:03:41.471,103278,224,41,-3093,-0.946999275,-3559,-1.089676825
2023-10-26 14:03:41.471,103279,162,0,-3020,-0.9246485,-3612,-1.1059041
2023-10-26 14:03:41.471,103280,226,41,-3062,-0.93750785,-3635,-1.112946125
2023-10-26 14:03:41.471,103281,164,0,-2996,-0.9173003,-3631,-1.111721425
2023-10-26 14:03:41.471,103282,223,39,-3236,-0.9907823,-3599,-1.101923825
2023-10-26 14:03:41.501,103283,165,0,-2989,-0.915157075,-3545,-1.085390375
2023-10-26 14:03:41.501,103284,223,38,-2911,-0.891275425,-3482,-1.06610135
2023-10-26 14:03:41.501,103285,167,0,-2550,-0.78074625,-3421,-1.047424675
2023-10-26 14:03:41.501,103286,222,39,-2887,-0.883927225,-3363,-1.029666525
2023-10-26 14:03:41.501,103287,166,0,-2836,-0.8683123,-3302,-1.01098985
2023-10-26 14:03:41.501,103288,220,38,-2845,-0.871067875,-3238,-0.99139465
2023-10-26 14:03:41.501,103289,167,0,-2644,-0.8095267,-3179,-0.973330325
2023-10-26 14:03:41.501,103290,219,40,-2846,-0.87137405,-3133,-0.959246275
2023-10-26 14:03:41.541,103291,168,0,-2875,-0.880253125,-3108,-0.9515919
2023-10-26 14:03:41.541,103292,218,37,-2975,-0.910870625,-3105,-0.950673375
2023-10-26 14:03:41.541,103293,168,0,-2450,-0.75012875,-3124,-0.9564907
2023-10-26 14:03:41.541,103294,217,38,-2796,-0.8560653,-3148,-0.9638389
2023-10-26 14:03:41.541,103295,169,0,-2806,-0.85912705,-3161,-0.967819175
2023-10-26 14:03:41.541,103296,214,39,-2933,-0.898011275,-3156,-0.9662883
2023-10-26 14:03:41.541,103297,170,0,-2375,-0.727165625,-3133,-0.959246275
2023-10-26 14:03:41.571,103298,216,38,-2467,-0.755333725,-3102,-0.94975485
2023-10-26 14:03:41.571,103299,170,0,-2923,-0.894949525,-3072,-0.9405696
2023-10-26 14:03:41.571,103300,212,41,-2967,-0.908421225,-3052,-0.9344461
2023-10-26 14:03:41.571,103301,170,0,-2369,-0.725328575,-3045,-0.932302875
2023-10-26 14:03:41.571,103302,211,40,-2661,-0.814731675,-3040,-0.930772
2023-10-26 14:03:41.601,103303,173,0,-2929,-0.896786575,-3028,-0.9270979
2023-10-26 14:03:41.601,103304,211,38,-2891,-0.885151925,-3009,-0.921280575
2023-10-26 14:03:41.601,103305,175,0,-2405,-0.736350875,-2984,-0.9136262
2023-10-26 14:03:41.601,103306,210,37,-2714,-0.83095895,-2954,-0.90444095
2023-10-26 14:03:41.601,103307,175,0,-3144,-0.9626142,-2923,-0.894949525
2023-10-26 14:03:41.601,103308,209,37,-3073,-0.940875775,-2899,-0.887601325
2023-10-26 14:03:41.601,103309,175,0,-2608,-0.7985044,-2881,-0.882090175
2023-10-26 14:03:41.631,103310,208,36,-2973,-0.910258275,-2860,-0.8756605
2023-10-26 14:03:41.631,103311,176,0,-3166,-0.96935005,-2838,-0.86892465
2023-10-26 14:03:41.631,103312,206,37,-3108,-0.9515919,-2821,-0.863719675
2023-10-26 14:03:41.631,103313,176,0,-2486,-0.76115105,-2811,-0.860657925
2023-10-26 14:03:41.631,103314,204,36,-2852,-0.8732111,-2796,-0.8560653
2023-10-26 14:03:41.631,103315,180,0,-3111,-0.952510425,-2773,-0.849023275
2023-10-26 14:03:41.661,103316,205,34,-3243,-0.992925525,-2755,-0.843512125
2023-10-26 14:03:41.661,103317,182,0,-2850,-0.87259875,-2748,-0.8413689
2023-10-26 14:03:41.661,103318,204,33,-2818,-0.86280115,-2740,-0.8389195
2023-10-26 14:03:41.661,103319,181,0,-3237,-0.991088475,-2730,-0.83585775
2023-10-26 14:03:41.661,103320,204,32,-3172,-0.9711871,-2725,-0.834326875
2023-10-26 14:03:41.661,103321,184,0,-2656,-0.8132008,-2727,-0.834939225
2023-10-26 14:03:41.661,103322,201,30,-3016,-0.9234238,-2726,-0.83463305
2023-10-26 14:03:41.661,103323,184,0,-3257,-0.997211975,-2719,-0.832489825
2023-10-26 14:03:41.691,103324,200,31,-3178,-0.97302415,-2718,-0.83218365
2023-10-26 14:03:41.691,103325,187,0,-2453,-0.751047275,-2728,-0.8352454
2023-10-26 14:03:41.691,103326,198,30,-2703,-0.827591025,-2745,-0.840450375
2023-10-26 14:03:41.691,103327,186,0,-3158,-0.96690065,-2762,-0.84565535
2023-10-26 14:03:41.691,103328,199,29,-2981,-0.912707675,-2785,-0.852697375
2023-10-26 14:03:41.691,103329,188,0,-2444,-0.7482917,-2818,-0.86280115
2023-10-26 14:03:41.691,103330,198,26,-2529,-0.774316575,-2849,-0.872292575
2023-10-26 14:03:41.721,103331,187,0,-3081,-0.943325175,-2868,-0.8781099
2023-10-26 14:03:41.721,103332,197,25,-3142,-0.96200185,-2884,-0.8830087
2023-10-26 14:03:41.721,103333,191,0,-2612,-0.7997291,-2905,-0.889438375
2023-10-26 14:03:41.721,103334,195,23,-2689,-0.823304575,-2924,-0.8952557
2023-10-26 14:03:41.721,103335,193,0,-2922,-0.89464335,-2932,-0.8977051
2023-10-26 14:03:41.721,103336,196,22,-2973,-0.910258275,-2942,-0.90076685
2023-10-26 14:03:41.751,103337,194,0,-2515,-0.770030125,-2962,-0.90689035
2023-10-26 14:03:41.751,103338,195,21,-2513,-0.769417775,-2980,-0.9124015
2023-10-26 14:03:41.751,103339,196,0,-2733,-0.836776275,-2989,-0.915157075
2023-10-26 14:03:41.751,103340,194,21,-2942,-0.90076685,-2995,-0.916994125
2023-10-26 14:03:41.751,103341,197,0,-2675,-0.819018125,-3004,-0.9197497
2023-10-26 14:03:41.751,103342,195,19,-2641,-0.808608175,-3003,-0.919443525
2023-10-26 14:03:41.751,103343,198,0,-2975,-0.910870625,-2990,-0.91546325
2023-10-26 14:03:41.791,103344,193,17,-2988,-0.9148509,-2978,-0.91178915
2023-10-26 14:03:41.791,103345,202,0,-2453,-0.751047275,-2975,-0.910870625
2023-10-26 14:03:41.791,103346,193,16,-2776,-0.8499418,-2969,-0.909033575
2023-10-26 14:03:41.791,103347,202,0,-2983,-0.913320025,-2950,-0.90321625
2023-10-26 14:03:41.791,103348,193,16,-2858,-0.87504815,-2927,-0.896174225
2023-10-26 14:03:41.791,103349,203,0,-2580,-0.7899315,-2909,-0.890663075
2023-10-26 14:03:41.821,103350,192,14,-2771,-0.848410925,-2888,-0.8842334
2023-10-26 14:03:41.821,103351,205,0,-2649,-0.811057575,-2858,-0.87504815
2023-10-26 14:03:41.821,103352,193,14,-2742,-0.83953185,-2834,-0.86769995
2023-10-26 14:03:41.821,103353,206,0,-2615,-0.800647625,-2827,-0.865556725
2023-10-26 14:03:41.821,103354,194,14,-2804,-0.8585147,-2827,-0.865556725
2023-10-26 14:03:41.851,103355,209,0,-2850,-0.87259875,-2817,-0.862494975
2023-10-26 14:03:41.851,103356,193,11,-2710,-0.82973425,-2801,-0.857596175
2023-10-26 14:03:41.851,103357,211,0,-2428,-0.7433929,-2791,-0.854534425
2023-10-26 14:03:41.851,103358,193,11,-2469,-0.755946075,-2786,-0.85300355
2023-10-26 14:03:41.851,103359,210,0,-2780,-0.8511665,-2776,-0.8499418
2023-10-26 14:03:41.851,103360,192,9,-2808,-0.8597394,-2766,-0.84688005
2023-10-26 14:03:41.851,103361,211,0,-2564,-0.7850327,-2765,-0.846573875
2023-10-26 14:03:41.881,103362,192,8,-2808,-0.8597394,-2767,-0.847186225
2023-10-26 14:03:41.881,103363,214,0,-3111,-0.952510425,-2767,-0.847186225
2023-10-26 14:03:41.881,103364,191,7,-2991,-0.915769425,-2767,-0.847186225
2023-10-26 14:03:41.881,103365,214,0,-2399,-0.734513825,-2770,-0.84810475
2023-10-26 14:03:41.881,103366,192,5,-2528,-0.7740104,-2773,-0.849023275
2023-10-26 14:03:41.881,103367,214,0,-2989,-0.915157075,-2774,-0.84932945
2023-10-26 14:03:41.911,103368,193,4,-3313,-1.014357775,-2772,-0.8487171
2023-10-26 14:03:41.911,103369,216,0,-2583,-0.790850025,-2771,-0.848410925
2023-10-26 14:03:41.911,103370,191,4,-2383,-0.729615025,-2773,-0.849023275
2023-10-26 14:03:41.911,103371,217,0,-2940,-0.9001545,-2772,-0.8487171
2023-10-26 14:03:41.911,103372,192,2,-3074,-0.94118195,-2769,-0.847798575
2023-10-26 14:03:41.941,103373,216,0,-2500,-0.7654375,-2764,-0.8462677
2023-10-26 14:03:41.941,103374,190,3,-2627,-0.804321725,-2752,-0.8425936
2023-10-26 14:03:41.941,103375,219,0,-3116,-0.9540413,-2730,-0.83585775
2023-10-26 14:03:41.941,103376,190,1,-3031,-0.928016425,-2710,-0.82973425
2023-10-26 14:03:41.941,103377,219,0,-2495,-0.763906625,-2699,-0.826366325
2023-10-26 14:03:41.941,103378,191,0,-2655,-0.812894625,-2693,-0.824529275
2023-10-26 14:03:41.971,103379,219,0,-3239,-0.991700825,-2692,-0.8242231
2023-10-26 14:03:41.971,103380,190,0,-3149,-0.964145075,-2699,-0.826366325
2023-10-26 14:03:41.971,103381,221,0,-2556,-0.7825833,-2712,-0.8303466
2023-10-26 14:03:41.971,103382,190,0,-2407,-0.736963225,-2718,-0.83218365
2023-10-26 14:03:41.971,103383,221,0,-3282,-1.00486635,-2717,-0.831877475
2023-10-26 14:03:41.971,103384,190,0,-3230,-0.98894525,-2725,-0.834326875
2023-10-26 14:03:42.001,103385,222,0,-2377,-0.727777975,-2748,-0.8413689
2023-10-26 14:03:42.001,103386,189,0,-2578,-0.78931915,-2772,-0.8487171
2023-10-26 14:03:42.001,103387,222,0,-3263,-0.999049025,-2781,-0.851472675
2023-10-26 14:03:42.001,103388,189,0,-2945,-0.901685375,-2784,-0.8523912
2023-10-26 14:03:42.001,103389,223,0,-2514,-0.76972395,-2794,-0.85545295
2023-10-26 14:03:42.001,103390,190,0,-2682,-0.82116135,-2802,-0.85790235
2023-10-26 14:03:42.001,103391,223,0,-3078,-0.94240665,-2801,-0.857596175
2023-10-26 14:03:42.041,103392,190,0,-2986,-0.91423855,-2801,-0.857596175
2023-10-26 14:03:42.041,103393,224,0,-2620,-0.8021785,-2809,-0.860045575
2023-10-26 14:03:42.041,103394,190,0,-2550,-0.78074625,-2814,-0.86157645
2023-10-26 14:03:42.041,103395,223,0,-3192,-0.9773106,-2808,-0.8597394
2023-10-26 14:03:42.041,103396,189,0,-3144,-0.9626142,-2800,-0.85729
2023-10-26 14:03:42.041,103397,225,0,-2586,-0.79176855,-2806,-0.85912705
2023-10-26 14:03:42.041,103398,187,0,-2568,-0.7862574,-2821,-0.863719675
2023-10-26 14:03:42.071,103399,227,0,-3187,-0.975779725,-2830,-0.86647525
2023-10-26 14:03:42.071,103400,187,0,-3092,-0.9466931,-2839,-0.869230825
2023-10-26 14:03:42.071,103401,226,0,-2384,-0.7299212,-2854,-0.87382345
2023-10-26 14:03:42.071,103402,188,0,-2442,-0.74767935,-2862,-0.87627285
2023-10-26 14:03:42.071,103403,229,0,-2938,-0.89954215,-2855,-0.874129625
2023-10-26 14:03:42.071,103404,186,0,-3222,-0.98649585,-2850,-0.87259875
2023-10-26 14:03:42.071,103405,228,0,-2769,-0.847798575,-2857,-0.874741975
2023-10-26 14:03:42.071,103406,186,0,-2647,-0.810445225,-2864,-0.8768852
2023-10-26 14:03:42.071,103407,230,0,-3013,-0.922505275,-2860,-0.8756605
2023-10-26 14:03:42.101,103408,182,0,-3216,-0.9846588,-2851,-0.872904925
2023-10-26 14:03:42.101,103409,229,0,-2799,-0.856983825,-2849,-0.872292575
2023-10-26 14:03:42.101,103410,182,0,-2801,-0.857596175,-2850,-0.87259875
2023-10-26 14:03:42.101,103411,229,0,-3401,-1.041301175,-2840,-0.869537
2023-10-26 14:03:42.101,103412,181,0,-3345,-1.024155375,-2829,-0.866169075
2023-10-26 14:03:42.101,103413,230,0,-2916,-0.8928063,-2835,-0.868006125
2023-10-26 14:03:42.101,103414,181,0,-3018,-0.92403615,-2845,-0.871067875
2023-10-26 14:03:42.131,103415,230,0,-3797,-1.162546475,-2844,-0.8707617
2023-10-26 14:03:42.131,103416,182,0,-3340,-1.0226245,-2844,-0.8707617
2023-10-26 14:03:42.131,103417,232,0,-2631,-0.805546425,-2852,-0.8732111
2023-10-26 14:03:42.131,103418,183,0,-2651,-0.811669925,-2856,-0.8744358
2023-10-26 14:03:42.131,103419,230,0,-3477,-1.064570475,-2845,-0.871067875
2023-10-26 14:03:42.131,103420,181,0,-2918,-0.89341865,-2833,-0.867393775
2023-10-26 14:03:42.161,103421,231,1,-1797,-0.550196475,-2834,-0.86769995
2023-10-26 14:03:42.161,103422,182,0,-1831,-0.560606425,-2841,-0.869843175
2023-10-26 14:03:42.161,103423,232,2,-3356,-1.0275233,-2839,-0.869230825
2023-10-26 14:03:42.161,103424,183,0,-4136,-1.2663398,-2831,-0.866781425
2023-10-26 14:03:42.161,103425,233,4,-4027,-1.232966725,-2836,-0.8683123
2023-10-26 14:03:42.161,103426,182,0,-4060,-1.2430705,-2849,-0.872292575
2023-10-26 14:03:42.161,103427,233,4,-4453,-1.363397275,-2858,-0.87504815
2023-10-26 14:03:42.161,103428,186,0,-4313,-1.320532775,-2871,-0.879028425
2023-10-26 14:03:42.191,103429,233,6,-2966,-0.90811505,-2899,-0.887601325
2023-10-26 14:03:42.191,103430,186,0,-2992,-0.9160756,-2935,-0.898623625
2023-10-26 14:03:42.191,103431,233,5,-4078,-1.24858165,-2968,-0.9087274
2023-10-26 14:03:42.191,103432,186,0,-3872,-1.1855096,-3004,-0.9197497
2023-10-26 14:03:42.191,103433,234,7,-2737,-0.838000975,-3046,-0.93260905
2023-10-26 14:03:42.191,103434,188,0,-2855,-0.874129625,-3082,-0.94363135
2023-10-26 14:03:42.221,103435,237,8,-4132,-1.2651151,-3105,-0.950673375
2023-10-26 14:03:42.221,103436,190,0,-3961,-1.212759175,-3121,-0.955572175
2023-10-26 14:03:42.221,103437,237,8,-2848,-0.8719864,-3129,-0.958021575
2023-10-26 14:03:42.221,103438,191,0,-2663,-0.815344025,-3107,-0.951285725
2023-10-26 14:03:42.221,103439,236,9,-3947,-1.208472725,-3050,-0.93383375
2023-10-26 14:03:42.251,103440,192,0,-3857,-1.180916975,-2995,-0.916994125
2023-10-26 14:03:42.251,103441,238,10,-2838,-0.86892465,-2977,-0.911482975
2023-10-26 14:03:42.251,103442,191,0,-2982,-0.91301385,-2991,-0.915769425
2023-10-26 14:03:42.251,103443,237,12,-3790,-1.16040325,-3021,-0.924954675
2023-10-26 14:03:42.251,103444,192,0,-3603,-1.103148525,-3072,-0.9405696
2023-10-26 14:03:42.251,103445,238,12,-2694,-0.82483545,-3155,-0.965982125
2023-10-26 14:03:42.251,103446,192,0,-3006,-0.92036205,-3244,-0.9932317
2023-10-26 14:03:42.251,103447,239,12,-3927,-1.202349225,-3319,-1.016194825
2023-10-26 14:03:42.291,103448,193,0,-3757,-1.150299475,-3400,-1.040995
2023-10-26 14:03:42.291,103449,239,14,-2806,-0.85912705,-3501,-1.071918675
2023-10-26 14:03:42.291,103450,193,0,-2785,-0.852697375,-3593,-1.100086775
2023-10-26 14:03:42.291,103451,240,15,-3915,-1.198675125,-3644,-1.1157017
2023-10-26 14:03:42.291,103452,193,0,-3817,-1.168669975,-3666,-1.12243755
2023-10-26 14:03:42.291,103453,240,15,-2889,-0.884539575,-3673,-1.124580775
2023-10-26 14:03:42.321,103454,192,0,-2800,-0.85729,-3658,-1.11998815
2023-10-26 14:03:42.321,103455,239,13,-3889,-1.190714575,-3612,-1.1059041
2023-10-26 14:03:42.321,103456,194,0,-3724,-1.1401957,-3557,-1.089064475
2023-10-26 14:03:42.321,103457,243,17,-2960,-0.906278,-3516,-1.0765113
2023-10-26 14:03:42.321,103458,195,0,-2883,-0.882702525,-3469,-1.062121075
2023-10-26 14:03:42.321,103459,243,16,-3671,-1.123968425,-3404,-1.0422197
2023-10-26 14:03:42.321,103460,196,0,-3483,-1.066407525,-3347,-1.024767725
2023-10-26 14:03:42.321,103461,243,18,-2776,-0.8499418,-3333,-1.020481275
2023-10-26 14:03:42.351,103462,195,0,-2712,-0.8303466,-3345,-1.024155375
2023-10-26 14:03:42.351,103463,245,19,-3502,-1.07222485,-3355,-1.027217125
2023-10-26 14:03:42.351,103464,195,0,-3694,-1.13101045,-3360,-1.028748
2023-10-26 14:03:42.351,103465,244,19,-2918,-0.89341865,-3372,-1.0324221
2023-10-26 14:03:42.351,103466,195,0,-2546,-0.77952155,-3373,-1.032728275
2023-10-26 14:03:42.351,103467,245,18,-3449,-1.055997575,-3344,-1.0238492
2023-10-26 14:03:42.351,103468,196,0,-3560,-1.089983,-3313,-1.014357775
2023-10-26 14:03:42.381,103469,246,19,-2788,-0.8536159,-3310,-1.01343925
2023-10-26 14:03:42.381,103470,196,0,-2740,-0.8389195,-3323,-1.017419525
2023-10-26 14:03:42.381,103471,247,21,-3619,-1.108047325,-3328,-1.0189504
2023-10-26 14:03:42.381,103472,196,0,-3473,-1.063345775,-3334,-1.02078745
2023-10-26 14:03:42.381,103473,249,20,-3038,-0.93015965,-3354,-1.02691095
2023-10-26 14:03:42.411,103474,197,0,-2734,-0.83708245,-3366,-1.03058505
2023-10-26 14:03:42.411,103475,248,21,-3530,-1.08079775,-3352,-1.0262986
2023-10-26 14:03:42.411,103476,196,0,-3559,-1.089676825,-3331,-1.019868925
2023-10-26 14:03:42.441,103477,250,23,-2964,-0.9075027,-3328,-1.0189504
2023-10-26 14:03:42.441,103478,197,0,-2849,-0.872292575,-3332,-1.0201751
2023-10-26 14:03:42.441,103479,249,24,-3496,-1.0703878,-3317,-1.015582475
2023-10-26 14:03:42.441,103480,194,0,-3485,-1.067019875,-3293,-1.008234275
2023-10-26 14:03:42.441,103481,251,22,-3298,-1.00976515,-3282,-1.00486635
2023-10-26 14:03:42.441,103482,193,0,-3102,-0.94975485,-3276,-1.0030293
2023-10-26 14:03:42.471,103483,249,23,-3620,-1.1083535,-3250,-0.99506875
2023-10-26 14:03:42.471,103484,193,0,-3565,-1.091513875,-3217,-0.984964975
2023-10-26 14:03:42.471,103485,256,24,-3222,-0.98649585,-3202,-0.98037235
2023-10-26 14:03:42.471,103486,193,0,-2966,-0.90811505,-3194,-0.97792295
2023-10-26 14:03:42.471,103487,255,26,-3540,-1.0838595,-3174,-0.97179945
2023-10-26 14:03:42.471,103488,191,0,-3694,-1.13101045,-3156,-0.9662883
2023-10-26 14:03:42.501,103489,258,24,-3164,-0.9687377,-3155,-0.965982125
2023-10-26 14:03:42.501,103490,190,0,-3196,-0.9785353,-3164,-0.9687377
2023-10-26 14:03:42.501,103491,258,27,-3828,-1.1720379,-3164,-0.9687377
2023-10-26 14:03:42.501,103492,188,0,-3561,-1.090289175,-3160,-0.967513
2023-10-26 14:03:42.541,103493,260,27,-3214,-0.98404645,-3169,-0.970268575
2023-10-26 14:03:42.541,103494,187,0,-3033,-0.928628775,-3187,-0.975779725
2023-10-26 14:03:42.541,103495,259,27,-3687,-1.128867225,-3193,-0.977616775
2023-10-26 14:03:42.541,103496,186,0,-3725,-1.140501875,-3190,-0.97669825
2023-10-26 14:03:42.541,103497,261,28,-3183,-0.974555025,-3198,-0.97914765
2023-10-26 14:03:42.541,103498,184,0,-2960,-0.906278,-3217,-0.984964975
2023-10-26 14:03:42.571,103499,261,29,-3635,-1.112946125,-3231,-0.989251425
2023-10-26 14:03:42.571,103500,183,0,-3732,-1.1426451,-3243,-0.992925525
2023-10-26 14:03:42.571,103501,264,30,-3379,-1.034565325,-3265,-0.999661375
2023-10-26 14:03:42.571,103502,181,0,-2815,-0.861882625,-3290,-1.00731575
2023-10-26 14:03:42.571,103503,264,29,-3406,-1.04283205,-3302,-1.01098985
2023-10-26 14:03:42.571,103504,180,0,-3647,-1.116620225,-3305,-1.011908375
2023-10-26 14:03:42.601,103505,265,29,-3104,-0.9503672,-3318,-1.01588865
2023-10-26 14:03:42.601,103506,179,0,-2918,-0.89341865,-3337,-1.021705975
2023-10-26 14:03:42.601,103507,265,30,-3561,-1.090289175,-3352,-1.0262986
2023-10-26 14:03:42.601,103508,179,0,-3442,-1.05385435,-3367,-1.030891225
2023-10-26 14:03:42.601,103509,266,31,-3057,-0.935976975,-3385,-1.036402375
2023-10-26 14:03:42.601,103510,178,0,-2909,-0.890663075,-3399,-1.040688825
2023-10-26 14:03:42.601,103511,266,30,-3330,-1.01956275,-3400,-1.040995
2023-10-26 14:03:42.631,103512,177,0,-3199,-0.979453825,-3398,-1.04038265
2023-10-26 14:03:42.631,103513,266,31,-3063,-0.937814025,-3406,-1.04283205
2023-10-26 14:03:42.631,103514,174,0,-2876,-0.8805593,-3416,-1.0458938
2023-10-26 14:03:42.631,103515,265,30,-3408,-1.0434444,-3415,-1.045587625
2023-10-26 14:03:42.631,103516,173,0,-3325,-1.018031875,-3409,-1.043750575
2023-10-26 14:03:42.631,103517,265,32,-2760,-0.845043,-3415,-1.045587625
2023-10-26 14:03:42.631,103518,173,0,-2495,-0.763906625,-3422,-1.04773085
2023-10-26 14:03:42.661,103519,264,32,-3150,-0.96445125,-3415,-1.045587625
2023-10-26 14:03:42.661,103520,172,0,-3075,-0.941488125,-3399,-1.040688825
2023-10-26 14:03:42.661,103521,262,34,-2749,-0.841675075,-3393,-1.038851775
2023-10-26 14:03:42.661,103522,173,0,-2482,-0.75992635,-3389,-1.037627075
2023-10-26 14:03:42.691,103523,263,32,-3061,-0.937201675,-3374,-1.03303445
2023-10-26 14:03:42.691,103524,171,0,-3073,-0.940875775,-3353,-1.026604775
2023-10-26 14:03:42.691,103525,261,35,-2846,-0.87137405,-3339,-1.022318325
2023-10-26 14:03:42.691,103526,172,0,-2582,-0.79054385,-3331,-1.019868925
2023-10-26 14:03:42.721,103527,262,35,-3319,-1.016194825,-3316,-1.0152763
2023-10-26 14:03:42.721,103528,171,0,-3284,-1.0054787,-3292,-1.0079281
2023-10-26 14:03:42.721,103529,260,37,-2766,-0.84688005,-3271,-1.001498425
2023-10-26 14:03:42.721,103530,171,0,-2355,-0.721042125,-3257,-0.997211975
2023-10-26 14:03:42.721,103531,261,35,-3111,-0.952510425,-3239,-0.991700825
2023-10-26 14:03:42.721,103532,169,0,-3134,-0.95955245,-3217,-0.984964975
2023-10-26 14:03:42.751,103533,257,37,-2856,-0.8744358,-3200,-0.97976
2023-10-26 14:03:42.751,103534,170,0,-2510,-0.76849925,-3184,-0.9748612
2023-10-26 14:03:42.751,103535,258,39,-3118,-0.95465365,-3155,-0.965982125
2023-10-26 14:03:42.751,103536,168,0,-3386,-1.03670855,-3123,-0.956184525
2023-10-26 14:03:42.751,103537,256,40,-2732,-0.8364701,-3100,-0.9491425
2023-10-26 14:03:42.751,103538,167,0,-2421,-0.741249675,-3079,-0.942712825
2023-10-26 14:03:42.791,103539,256,42,-3379,-1.034565325,-3046,-0.93260905
2023-10-26 14:03:42.791,103540,168,0,-3707,-1.134990725,-3009,-0.921280575
2023-10-26 14:03:42.791,103541,255,42,-2637,-0.807383475,-2980,-0.9124015
2023-10-26 14:03:42.791,103542,165,0,-2405,-0.736350875,-2956,-0.9050533
2023-10-26 14:03:42.791,103543,253,42,-3438,-1.05262965,-2929,-0.896786575
2023-10-26 14:03:42.791,103544,165,0,-3417,-1.046199975,-2909,-0.890663075
2023-10-26 14:03:42.791,103545,254,45,-2656,-0.8132008,-2908,-0.8903569
2023-10-26 14:03:42.821,103546,165,0,-2267,-0.694098725,-2915,-0.892500125
2023-10-26 14:03:42.821,103547,251,45,-3250,-0.99506875,-2910,-0.89096925
2023-10-26 14:03:42.821,103548,163,0,-3811,-1.166832925,-2901,-0.888213675
2023-10-26 14:03:42.821,103549,249,46,-2781,-0.851472675,-2902,-0.88851985
2023-10-26 14:03:42.821,103550,159,0,-2397,-0.733901475,-2910,-0.89096925
2023-10-26 14:03:42.821,103551,249,48,-3295,-1.008846625,-2914,-0.89219395
2023-10-26 14:03:42.821,103552,161,0,-3664,-1.1218252,-2915,-0.892500125
2023-10-26 14:03:42.851,103553,250,50,-2399,-0.734513825,-2925,-0.895561875
2023-10-26 14:03:42.851,103554,158,0,-2244,-0.6870567,-2935,-0.898623625
2023-10-26 14:03:42.851,103555,249,50,-3485,-1.067019875,-2931,-0.897398925
2023-10-26 14:03:42.851,103556,158,0,-3363,-1.029666525,-2924,-0.8952557
2023-10-26 14:03:42.851,103557,247,52,-2508,-0.7678869,-2935,-0.898623625
2023-10-26 14:03:42.851,103558,156,0,-2246,-0.68766905,-2953,-0.904134775
2023-10-26 14:03:42.851,103559,248,52,-3346,-1.02446155,-2958,-0.90566565
2023-10-26 14:03:42.851,103560,157,0,-3631,-1.111721425,-2961,-0.906584175
2023-10-26 14:03:42.851,103561,247,53,-2810,-0.86035175,-2977,-0.911482975
2023-10-26 14:03:42.881,103562,156,0,-2474,-0.75747695,-2993,-0.916381775
2023-10-26 14:03:42.881,103563,246,54,-3345,-1.024155375,-2995,-0.916994125
2023-10-26 14:03:42.881,103564,156,0,-4253,-1.302162275,-2990,-0.91546325
2023-10-26 14:03:42.881,103565,246,56,-2879,-0.881477825,-3003,-0.919443525
2023-10-26 14:03:42.881,103566,155,0,-2597,-0.795136475,-3020,-0.9246485
2023-10-26 14:03:42.881,103567,246,56,-3015,-0.923117625,-3016,-0.9234238
2023-10-26 14:03:42.881,103568,155,0,-3506,-1.07344955,-3000,-0.918525
2023-10-26 14:03:42.911,103569,245,57,-2214,-0.67787145,-3001,-0.918831175
2023-10-26 14:03:42.911,103570,153,0,-2265,-0.693486375,-3009,-0.921280575
2023-10-26 14:03:42.911,103571,245,57,-3143,-0.962308025,-3000,-0.918525
2023-10-26 14:03:42.911,103572,153,0,-3748,-1.1475439,-2986,-0.91423855
2023-10-26 14:03:42.911,103573,244,57,-2567,-0.785951225,-2987,-0.914544725
2023-10-26 14:03:42.911,103574,153,0,-2589,-0.792687075,-2990,-0.91546325
2023-10-26 14:03:42.941,103575,246,58,-3241,-0.992313175,-2975,-0.910870625
2023-10-26 14:03:42.941,103576,151,0,-3917,-1.199287475,-2950,-0.90321625
2023-10-26 14:03:42.941,103577,245,57,-2811,-0.860657925,-2945,-0.901685375
2023-10-26 14:03:42.941,103578,150,0,-2669,-0.817181075,-2956,-0.9050533
2023-10-26 14:03:42.941,103579,245,58,-2916,-0.8928063,-2956,-0.9050533
2023-10-26 14:03:42.941,103580,150,0,-3603,-1.103148525,-2951,-0.903522425
2023-10-26 14:03:42.941,103581,243,56,-3245,-0.993537875,-2975,-0.910870625
2023-10-26 14:03:42.971,103582,150,0,-2682,-0.82116135,-3014,-0.92281145
2023-10-26 14:03:42.971,103583,245,57,-3250,-0.99506875,-3034,-0.92893495
2023-10-26 14:03:42.971,103584,147,0,-4491,-1.375031925,-3040,-0.930772
2023-10-26 14:03:42.971,103585,245,56,-4352,-1.3324736,-3059,-0.936589325
2023-10-26 14:03:42.971,103586,150,0,-3765,-1.152748875,-3081,-0.943325175
2023-10-26 14:03:42.971,103587,244,56,-4722,-1.44575835,-3077,-0.942100475
2023-10-26 14:03:43.001,103588,148,0,-5530,-1.69314775,-3057,-0.935976975
2023-10-26 14:03:43.001,103589,242,53,-5287,-1.618747225,-3044,-0.9319967
2023-10-26 14:03:43.001,103590,149,0,-4606,-1.41024205,-3037,-0.929853475
2023-10-26 14:03:43.001,103591,243,53,-4954,-1.51679095,-3013,-0.922505275
2023-10-26 14:03:43.001,103592,146,0,-5462,-1.67232785,-2979,-0.912095325
2023-10-26 14:03:43.041,103593,241,54,-6753,-2.067599775,-2966,-0.90811505
2023-10-26 14:03:43.041,103594,146,0,-7698,-2.35693515,-2975,-0.910870625
2023-10-26 14:03:43.041,103595,239,54,-8660,-2.6514755,-2979,-0.912095325
2023-10-26 14:03:43.041,103596,146,0,-9137,-2.797520975,-2975,-0.910870625
2023-10-26 14:03:43.071,103597,238,50,-9780,-2.9943915,-2989,-0.915157075
2023-10-26 14:03:43.071,103598,150,0,-9487,-2.904682225,-3024,-0.9258732
2023-10-26 14:03:43.071,103599,238,52,-8865,-2.714241375,-3048,-0.9332214
2023-10-26 14:03:43.071,103600,147,0,-9302,-2.84803985,-3065,-0.938426375
2023-10-26 14:03:43.071,103601,234,50,-9435,-2.888761125,-3113,-0.953122775
2023-10-26 14:03:43.071,103602,148,0,-8872,-2.7163846,-3199,-0.979453825
2023-10-26 14:03:43.101,103603,237,51,-8876,-2.7176093,-3289,-1.007009575
2023-10-26 14:03:43.101,103604,149,0,-9763,-2.989186525,-3381,-1.035177675
2023-10-26 14:03:43.101,103605,232,48,-9250,-2.83211875,-3504,-1.0728372
2023-10-26 14:03:43.101,103606,152,0,-9195,-2.815279125,-3665,-1.122131375
2023-10-26 14:03:43.101,103607,231,50,-8633,-2.643208775,-3840,-1.175712
2023-10-26 14:03:43.101,103608,151,0,-9467,-2.898558725,-4014,-1.22898645
2023-10-26 14:03:43.101,103609,230,47,-8756,-2.6808683,-4204,-1.2871597
2023-10-26 14:03:43.101,103610,153,0,-8166,-2.50022505,-4442,-1.36002935
2023-10-26 14:03:43.101,103611,228,46,-7668,-2.3477499,-4732,-1.4488201
2023-10-26 14:03:43.131,103612,154,0,-8757,-2.681174475,-5058,-1.54863315
2023-10-26 14:03:43.131,103613,226,43,-8129,-2.488896575,-5421,-1.659774675
2023-10-26 14:03:43.131,103614,154,0,-7664,-2.3465252,-5837,-1.787143475
2023-10-26 14:03:43.131,103615,228,45,-7269,-2.225586075,-6283,-1.923697525
2023-10-26 14:03:43.131,103616,156,0,-8441,-2.584423175,-6723,-2.058414525
2023-10-26 14:03:43.131,103617,226,42,-7639,-2.338870825,-7157,-2.191294475
2023-10-26 14:03:43.131,103618,157,0,-7622,-2.33366585,-7589,-2.323562075
2023-10-26 14:03:43.161,103619,224,43,-7881,-2.412965175,-7999,-2.449093825
2023-10-26 14:03:43.161,103620,158,0,-8932,-2.7347551,-8364,-2.5608477
2023-10-26 14:03:43.161,103621,223,41,-8458,-2.58962815,-8676,-2.6563743
2023-10-26 14:03:43.161,103622,161,0,-8466,-2.59207755,-8927,-2.733224225
2023-10-26 14:03:43.161,103623,222,42,-9448,-2.8927414,-9111,-2.789560425
2023-10-26 14:03:43.161,103624,160,0,-9436,-2.8890673,-9233,-2.826913775
2023-10-26 14:03:43.191,103625,221,40,-8809,-2.697095575,-9300,-2.8474275
2023-10-26 14:03:43.191,103626,162,0,-8932,-2.7347551,-9315,-2.852020125
2023-10-26 14:03:43.191,103627,220,41,-8951,-2.740572425,-9274,-2.83946695
2023-10-26 14:03:43.191,103628,162,0,-8423,-2.578912025,-9178,-2.81007415
2023-10-26 14:03:43.191,103629,218,39,-8832,-2.7041376,-9052,-2.7714961
2023-10-26 14:03:43.191,103630,163,0,-8217,-2.515839975,-8928,-2.7335304
2023-10-26 14:03:43.191,103631,217,39,-7858,-2.40592315,-8808,-2.6967894
2023-10-26 14:03:43.221,103632,164,0,-7374,-2.25773445,-8687,-2.659742225
2023-10-26 14:03:43.221,103633,217,38,-8480,-2.596364,-8576,-2.6257568
2023-10-26 14:03:43.221,103634,165,0,-8334,-2.55166245,-8473,-2.594220775
2023-10-26 14:03:43.221,103635,213,38,-7652,-2.3428511,-8362,-2.56023535
2023-10-26 14:03:43.221,103636,166,0,-5973,-1.828783275,-8240,-2.522882
2023-10-26 14:03:43.221,103637,213,39,-7851,-2.403779925,-8132,-2.4898151
2023-10-26 14:03:43.221,103638,167,0,-7422,-2.27243085,-8061,-2.468076675
2023-10-26 14:03:43.251,103639,212,38,-7471,-2.287433425,-8035,-2.460116125
2023-10-26 14:03:43.251,103640,168,0,-5864,-1.7954102,-8058,-2.46715815
2023-10-26 14:03:43.251,103641,211,38,-7466,-2.28590255,-8125,-2.487671875
2023-10-26 14:03:43.251,103642,168,0,-7445,-2.279472875,-8229,-2.519514075
2023-10-26 14:03:43.251,103643,211,38,-7083,-2.168637525,-8354,-2.55778595
2023-10-26 14:03:43.291,103644,169,0,-5660,-1.7329505,-8475,-2.594833125
2023-10-26 14:03:43.291,103645,208,38,-7139,-2.185783325,-8580,-2.6269815
2023-10-26 14:03:43.291,103646,170,0,-7168,-2.1946624,-8676,-2.6563743
2023-10-26 14:03:43.291,103647,208,37,-7170,-2.19527475,-8748,-2.6784189
2023-10-26 14:03:43.291,103648,173,0,-5889,-1.803064575,-8772,-2.6857671
2023-10-26 14:03:43.291,103649,206,38,-7757,-2.374999475,-8756,-2.6808683
2023-10-26 14:03:43.291,103650,172,0,-8026,-2.45736055,-8723,-2.670764525
2023-10-26 14:03:43.321,103651,206,37,-7715,-2.362140125,-8672,-2.6551496
2023-10-26 14:03:43.321,103652,172,0,-6063,-1.856339025,-8578,-2.62636915
2023-10-26 14:03:43.321,103653,206,38,-8162,-2.49900035,-8439,-2.583810825
2023-10-26 14:03:43.321,103654,176,0,-8494,-2.60065045,-8281,-2.535435175
2023-10-26 14:03:43.321,103655,203,37,-8669,-2.654231075,-8127,-2.488284225
2023-10-26 14:03:43.321,103656,176,0,-6411,-1.962887925,-7972,-2.4408271
2023-10-26 14:03:43.351,103657,202,35,-8502,-2.60309985,-7803,-2.389083525
2023-10-26 14:03:43.351,103658,176,0,-8748,-2.6784189,-7645,-2.340707875
2023-10-26 14:03:43.351,103659,202,33,-8750,-2.67903125,-7526,-2.30427305
2023-10-26 14:03:43.351,103660,179,0,-5996,-1.8358253,-7432,-2.2754926
2023-10-26 14:03:43.351,103661,200,34,-8120,-2.486141,-7327,-2.243344225
2023-10-26 14:03:43.351,103662,178,0,-9092,-2.7837431,-7214,-2.20874645
2023-10-26 14:03:43.351,103663,197,33,-9024,-2.7629232,-7127,-2.182109225
2023-10-26 14:03:43.351,103664,181,0,-6126,-1.87562805,-7072,-2.1652696
2023-10-26 14:03:43.381,103665,199,31,-8983,-2.750370025,-7016,-2.1481238
2023-10-26 14:03:43.381,103666,182,0,-9311,-2.850795425,-6961,-2.131284175
2023-10-26 14:03:43.381,103667,196,30,-8563,-2.621776525,-6945,-2.126385375
2023-10-26 14:03:43.381,103668,185,0,-5983,-1.831845025,-6969,-2.133733575
2023-10-26 14:03:43.381,103669,197,27,-9003,-2.756493525,-7000,-2.143225
2023-10-26 14:03:43.381,103670,186,0,-8953,-2.741184775,-7039,-2.155165825
2023-10-26 14:03:43.381,103671,196,26,-8347,-2.555642725,-7117,-2.179047475
2023-10-26 14:03:43.381,103672,187,0,-5638,-1.72621465,-7228,-2.2130329
2023-10-26 14:03:43.381,103673,194,25,-7940,-2.4310295,-7327,-2.243344225
2023-10-26 14:03:43.411,103674,187,0,-8238,-2.52226965,-7408,-2.2681444
2023-10-26 14:03:43.411,103675,194,22,-7948,-2.4334789,-7513,-2.300292775
2023-10-26 14:03:43.411,103676,189,0,-5374,-1.64538445,-7640,-2.339177
2023-10-26 14:03:43.411,103677,193,24,-8060,-2.4677705,-7740,-2.3697945
2023-10-26 14:03:43.411,103678,192,0,-8385,-2.567277375,-7804,-2.3893897
2023-10-26 14:03:43.441,103679,192,21,-8100,-2.4800175,-7886,-2.41449605
2023-10-26 14:03:43.441,103680,191,0,-5399,-1.653038825,-7982,-2.44388885
2023-10-26 14:03:43.441,103681,191,20,-8066,-2.46960755,-8036,-2.4604223
2023-10-26 14:03:43.441,103682,194,0,-8835,-2.705056125,-8049,-2.464402575
2023-10-26 14:03:43.441,103683,193,21,-8337,-2.552580975,-8074,-2.47205695
2023-10-26 14:03:43.441,103684,195,0,-5526,-1.69192305,-8119,-2.485834825
2023-10-26 14:03:43.471,103685,190,18,-8168,-2.5008374,-8145,-2.493795375
2023-10-26 14:03:43.471,103686,198,0,-8434,-2.58227995,-8149,-2.495020075
2023-10-26 14:03:43.471,103687,192,16,-8454,-2.58840345,-8169,-2.501143575
2023-10-26 14:03:43.471,103688,199,0,-5655,-1.731419625,-8204,-2.5118597
2023-10-26 14:03:43.471,103689,191,15,-8186,-2.50634855,-8199,-2.510328825
2023-10-26 14:03:43.471,103690,202,0,-8806,-2.69617705,-8139,-2.491958325
2023-10-26 14:03:43.501,103691,190,15,-8281,-2.535435175,-8079,-2.473587825
2023-10-26 14:03:43.501,103692,202,0,-5814,-1.78010145,-8042,-2.46225935
2023-10-26 14:03:43.501,103693,190,13,-8289,-2.537884575,-7980,-2.4432765
2023-10-26 14:03:43.501,103694,203,0,-8962,-2.74394035,-7882,-2.41327135
2023-10-26 14:03:43.501,103695,190,13,-8720,-2.669846,-7806,-2.39000205
2023-10-26 14:03:43.541,103696,205,0,-6216,-1.9031838,-7758,-2.37530565
2023-10-26 14:03:43.541,103697,192,10,-8042,-2.46225935,-7682,-2.35203635
2023-10-26 14:03:43.541,103698,207,0,-8514,-2.60677395,-7580,-2.3208065
2023-10-26 14:03:43.541,103699,191,11,-8182,-2.50512385,-7525,-2.303966875
2023-10-26 14:03:43.541,103700,208,0,-6237,-1.909613475,-7531,-2.305803925
2023-10-26 14:03:43.541,103701,189,10,-8226,-2.51859555,-7537,-2.307640975
2023-10-26 14:03:43.572,103702,209,0,-8663,-2.652394025,-7523,-2.303354525
2023-10-26 14:03:43.572,103703,186,8,-8531,-2.611978925,-7536,-2.3073348
2023-10-26 14:03:43.572,103704,210,0,-6293,-1.926759275,-7587,-2.322949725
2023-10-26 14:03:43.572,103705,188,7,-8302,-2.54186485,-7617,-2.332134975
2023-10-26 14:03:43.572,103706,212,0,-8767,-2.684236225,-7616,-2.3318288
2023-10-26 14:03:43.572,103707,188,6,-8778,-2.68760415,-7640,-2.339177
2023-10-26 14:03:43.602,103708,212,0,-6757,-2.068824475,-7697,-2.356628975
2023-10-26 14:03:43.602,103709,188,6,-8570,-2.62391975,-7729,-2.366426575
2023-10-26 14:03:43.602,103710,211,0,-9483,-2.903457525,-7720,-2.363671
2023-10-26 14:03:43.602,103711,187,5,-9257,-2.834261975,-7728,-2.3661204
2023-10-26 14:03:43.602,103712,214,0,-6741,-2.063925675,-7777,-2.381122975
2023-10-26 14:03:43.636,103713,189,4,-8446,-2.58595405,-7814,-2.39245145
2023-10-26 14:03:43.636,103714,215,0,-9108,-2.7886419,-7815,-2.392757625
2023-10-26 14:03:43.636,103715,189,2,-9226,-2.82477055,-7826,-2.39612555
2023-10-26 14:03:43.636,103716,216,0,-6683,-2.046167525,-7864,-2.4077602
2023-10-26 14:03:43.636,103717,189,0,-8057,-2.466851975,-7884,-2.4138837
2023-10-26 14:03:43.636,103718,216,0,-8889,-2.721589575,-7868,-2.4089849
2023-10-26 14:03:43.669,103719,188,0,-8976,-2.7482268,-7865,-2.408066375
2023-10-26 14:03:43.669,103720,220,0,-6399,-1.959213825,-7895,-2.417251625
2023-10-26 14:03:43.669,103721,187,0,-7948,-2.4334789,-7910,-2.42184425
2023-10-26 14:03:43.669,103722,217,0,-8762,-2.68270535,-7891,-2.416026925
2023-10-26 14:03:43.669,103723,188,0,-8723,-2.670764525,-7885,-2.414189875
2023-10-26 14:03:43.669,103724,220,0,-6041,-1.849603175,-7917,-2.423987475
2023-10-26 14:03:43.700,103725,188,0,-7777,-2.381122975,-7947,-2.433172725
2023-10-26 14:03:43.700,103726,219,0,-9178,-2.81007415,-7959,-2.436846825
2023-10-26 14:03:43.700,103727,188,0,-8874,-2.71699695,-7999,-2.449093825
2023-10-26 14:03:43.700,103728,222,0,-5859,-1.793879325,-8077,-2.472975475
2023-10-26 14:03:43.700,103729,189,0,-7611,-2.330297925,-8142,-2.49287685
2023-10-26 14:03:43.700,103730,222,0,-8803,-2.695258525,-8177,-2.503592975
2023-10-26 14:03:43.700,103731,187,0,-8654,-2.64963845,-8229,-2.519514075
2023-10-26 14:03:43.725,103732,222,0,-5832,-1.7856126,-8311,-2.544620425
2023-10-26 14:03:43.725,103733,190,0,-7333,-2.245181275,-8368,-2.5620724
2023-10-26 14:03:43.725,103734,223,0,-8623,-2.640147025,-8373,-2.563603275
2023-10-26 14:03:43.725,103735,185,0,-8756,-2.6808683,-8371,-2.562990925
2023-10-26 14:03:43.725,103736,223,0,-5718,-1.75070865,-8386,-2.56758355
2023-10-26 14:03:43.725,103737,186,0,-7417,-2.270899975,-8378,-2.56513415
2023-10-26 14:03:43.725,103738,224,0,-8633,-2.643208775,-8326,-2.54921305
2023-10-26 14:03:43.755,103739,185,0,-8303,-2.542171025,-8278,-2.53451665
2023-10-26 14:03:43.755,103740,223,0,-5694,-1.74336045,-8258,-2.52839315
2023-10-26 14:03:43.755,103741,186,0,-7626,-2.33489055,-8218,-2.51614615
2023-10-26 14:03:43.755,103742,225,0,-8812,-2.6980141,-8140,-2.4922645
2023-10-26 14:03:43.755,103743,183,0,-8342,-2.55411185,-8076,-2.4726693
2023-10-26 14:03:43.755,103744,228,0,-5833,-1.785918775,-8052,-2.4653211
2023-10-26 14:03:43.797,103745,185,0,-7761,-2.376224175,-8023,-2.456442025
2023-10-26 14:03:43.797,103746,226,0,-8468,-2.5926899,-7967,-2.439296225
2023-10-26 14:03:43.797,103747,183,0,-8022,-2.45613585,-7930,-2.42796775
2023-10-26 14:03:43.797,103748,226,0,-5723,-1.752239525,-7932,-2.4285801
2023-10-26 14:03:43.797,103749,181,0,-7020,-2.1493485,-7918,-2.42429365
2023-10-26 14:03:43.797,103750,227,0,-8039,-2.461340825,-7863,-2.407454025
2023-10-26 14:03:43.797,103751,180,0,-8286,-2.53696605,-7817,-2.393369975
2023-10-26 14:03:43.827,103752,226,0,-6328,-1.9374754,-7814,-2.39245145
2023-10-26 14:03:43.827,103753,181,0,-8844,-2.7078117,-7801,-2.388471175
2023-10-26 14:03:43.827,103754,228,0,-10091,-3.089611925,-7747,-2.371937725
2023-10-26 14:03:43.827,103755,180,0,-9335,-2.858143625,-7703,-2.358466025
2023-10-26 14:03:43.827,103756,229,0,-6025,-1.844704375,-7700,-2.3575475
2023-10-26 14:03:43.827,103757,180,0,-7378,-2.25895915,-7690,-2.35448575
2023-10-26 14:03:43.867,103758,233,0,-8632,-2.6429026,-7645,-2.340707875
2023-10-26 14:03:43.867,103759,178,0,-8327,-2.549519225,-7613,-2.330910275
2023-10-26 14:03:43.867,103760,229,0,-5404,-1.6545697,-7621,-2.333359675
2023-10-26 14:03:43.867,103761,179,0,-6807,-2.084133225,-7628,-2.3355029
2023-10-26 14:03:43.867,103762,230,1,-8025,-2.457054375,-7607,-2.329073225
2023-10-26 14:03:43.867,103763,180,0,-8006,-2.45123705,-7594,-2.32509295
2023-10-26 14:03:43.867,103764,232,0,-5278,-1.61599165,-7614,-2.33121645
2023-10-26 14:03:43.867,103765,181,0,-6681,-2.045555175,-7620,-2.3330535
2023-10-26 14:03:43.867,103766,232,3,-8341,-2.553805675,-7580,-2.3208065
2023-10-26 14:03:43.903,103767,181,0,-8078,-2.47328165,-7540,-2.3085595
2023-10-26 14:03:43.903,103768,232,4,-5471,-1.675083425,-7538,-2.30794715
2023-10-26 14:03:43.903,103769,182,0,-6776,-2.0746418,-7538,-2.30794715
2023-10-26 14:03:43.903,103770,233,5,-8055,-2.466239625,-7532,-2.3061101
2023-10-26 14:03:43.903,103771,183,0,-7759,-2.375611825,-7573,-2.318663275
2023-10-26 14:03:43.903,103772,232,6,-5300,-1.6227275,-7669,-2.348056075
2023-10-26 14:03:43.903,103773,185,0,-6658,-2.03851315,-7750,-2.37285625
2023-10-26 14:03:43.934,103774,235,8,-8069,-2.470526075,-7786,-2.38387855
2023-10-26 14:03:43.934,103775,187,0,-7458,-2.28345315,-7830,-2.39735025
2023-10-26 14:03:43.934,103776,233,8,-5524,-1.6913107,-7901,-2.419088675
2023-10-26 14:03:43.934,103777,187,0,-6467,-1.980033725,-7941,-2.431335675
2023-10-26 14:03:43.934,103778,234,8,-8081,-2.474200175,-7917,-2.423987475
2023-10-26 14:03:43.934,103779,187,0,-7764,-2.3771427,-7875,-2.411128125
2023-10-26 14:03:43.934,103780,236,11,-5434,-1.66375495,-7843,-2.401330525
2023-10-26 14:03:43.934,103781,189,0,-6441,-1.972073175,-7767,-2.378061225
2023-10-26 14:03:43.934,103782,235,12,-8052,-2.4653211,-7628,-2.3355029
2023-10-26 14:03:43.970,103783,190,0,-7548,-2.3110089,-7498,-2.29570015
2023-10-26 14:03:43.970,103784,235,11,-5679,-1.738767825,-7419,-2.271512325
2023-10-26 14:03:43.970,103785,188,0,-6589,-2.017387075,-7339,-2.247018325
2023-10-26 14:03:43.970,103786,238,12,-7973,-2.441133275,-7221,-2.210889675
2023-10-26 14:03:43.970,103787,190,0,-7647,-2.341320225,-7117,-2.179047475
2023-10-26 14:03:43.970,103788,235,14,-5882,-1.80092135,-7073,-2.165575775
2023-10-26 14:03:43.970,103789,191,0,-6160,-1.886038,-7055,-2.160064625
2023-10-26 14:03:43.970,103790,237,16,-7919,-2.424599825,-7032,-2.1530226
2023-10-26 14:03:43.970,103791,191,0,-7552,-2.3122336,-7031,-2.152716425
2023-10-26 14:03:44.010,103792,238,13,-5727,-1.753464225,-7066,-2.16343255
2023-10-26 14:03:44.010,103793,191,0,-5890,-1.80337075,-7081,-2.168025175
2023-10-26 14:03:44.010,103794,239,15,-7478,-2.28957665,-7038,-2.15485965
2023-10-26 14:03:44.010,103795,192,0,-7271,-2.226198425,-6989,-2.139857075
2023-10-26 14:03:44.010,103796,239,15,-5612,-1.7182541,-6979,-2.136795325
2023-10-26 14:03:44.040,103797,192,0,-5859,-1.793879325,-6971,-2.134345925
2023-10-26 14:03:44.040,103798,239,15,-7315,-2.239670125,-6938,-2.12424215
2023-10-26 14:03:44.040,103799,193,0,-6527,-1.998404225,-6921,-2.119037175
2023-10-26 14:03:44.040,103800,240,18,-4748,-1.4537189,-6943,-2.125773025
2023-10-26 14:03:44.040,103801,192,0,-5557,-1.701414475,-6959,-2.130671825
2023-10-26 14:03:44.040,103802,238,21,-6861,-2.100666675,-6936,-2.1236298
2023-10-26 14:03:44.040,103803,194,0,-6506,-1.99197455,-6919,-2.118424825
2023-10-26 14:03:44.040,103804,241,19,-4862,-1.48862285,-6942,-2.12546685
2023-10-26 14:03:44.070,103805,193,0,-5656,-1.7317258,-6965,-2.132508875
2023-10-26 14:03:44.070,103806,242,19,-6572,-2.0121821,-6950,-2.12791625
2023-10-26 14:03:44.070,103807,194,0,-6235,-1.909001125,-6935,-2.123323625
2023-10-26 14:03:44.070,103808,242,20,-4896,-1.4990328,-6955,-2.129447125
2023-10-26 14:03:44.070,103809,195,0,-5354,-1.63926095,-6969,-2.133733575
2023-10-26 14:03:44.070,103810,243,20,-6674,-2.04341195,-6936,-2.1236298
2023-10-26 14:03:44.100,103811,197,0,-6257,-1.915736975,-6895,-2.111076625
2023-10-26 14:03:44.100,103812,244,20,-4945,-1.514035375,-6882,-2.10709635
2023-10-26 14:03:44.100,103813,194,0,-5248,-1.6068064,-6865,-2.101891375
2023-10-26 14:03:44.100,103814,244,20,-6668,-2.0415749,-6810,-2.08505175
2023-10-26 14:03:44.100,103815,193,0,-6228,-1.9068579,-6747,-2.065762725
2023-10-26 14:03:44.140,103816,245,19,-4790,-1.46657825,-6702,-2.05198485
2023-10-26 14:03:44.140,103817,193,0,-5184,-1.5872112,-6646,-2.03483905
2023-10-26 14:03:44.140,103818,249,21,-6717,-2.056577475,-6555,-2.006977125
2023-10-26 14:03:44.140,103819,193,0,-6077,-1.860625475,-6460,-1.9778905
2023-10-26 14:03:44.140,103820,249,22,-5046,-1.54495905,-6392,-1.9570706
2023-10-26 14:03:44.140,103821,192,0,-5037,-1.542203475,-6327,-1.937169225
2023-10-26 14:03:44.140,103822,250,22,-6601,-2.021061175,-6239,-1.910225825
2023-10-26 14:03:44.170,103823,191,0,-6191,-1.895529425,-6152,-1.8835886
2023-10-26 14:03:44.170,103824,250,25,-5257,-1.609561975,-6093,-1.865524275
2023-10-26 14:03:44.170,103825,191,0,-4796,-1.4684153,-6042,-1.84990935
2023-10-26 14:03:44.170,103826,254,27,-6227,-1.906551725,-5975,-1.829395625
2023-10-26 14:03:44.170,103827,191,0,-6205,-1.899815875,-5922,-1.81316835
2023-10-26 14:03:44.170,103828,253,25,-5400,-1.653345,-5908,-1.8088819
2023-10-26 14:03:44.200,103829,189,0,-5315,-1.627320125,-5894,-1.80459545
2023-10-26 14:03:44.200,103830,255,26,-5958,-1.82419065,-5852,-1.7917361
2023-10-26 14:03:44.200,103831,186,0,-6157,-1.885119475,-5817,-1.781019975
2023-10-26 14:03:44.200,103832,255,25,-5451,-1.668959925,-5816,-1.7807138
2023-10-26 14:03:44.200,103833,185,0,-5214,-1.59639645,-5818,-1.78132615
2023-10-26 14:03:44.200,103834,258,26,-6745,-2.065150375,-5799,-1.775508825
2023-10-26 14:03:44.200,103835,184,0,-6466,-1.97972755,-5785,-1.771222375
2023-10-26 14:03:44.200,103836,258,26,-5877,-1.799390475,-5793,-1.773671775
2023-10-26 14:03:44.230,103837,183,0,-5360,-1.641098,-5793,-1.773671775
2023-10-26 14:03:44.230,103838,259,28,-6892,-2.1101581,-5762,-1.76418035
2023-10-26 14:03:44.230,103839,182,0,-6246,-1.91236905,-5734,-1.75560745
2023-10-26 14:03:44.230,103840,261,27,-5563,-1.703251525,-5741,-1.757750675
2023-10-26 14:03:44.230,103841,180,0,-5401,-1.653651175,-5756,-1.7623433
2023-10-26 14:03:44.230,103842,263,28,-7250,-2.21976875,-5743,-1.758363025
2023-10-26 14:03:44.260,103843,179,0,-6717,-2.056577475,-5722,-1.75193335
2023-10-26 14:03:44.260,103844,262,29,-6046,-1.85113405,-5727,-1.753464225
2023-10-26 14:03:44.260,103845,178,0,-5582,-1.70906885,-5738,-1.75683215
2023-10-26 14:03:44.260,103846,262,30,-7478,-2.28957665,-5723,-1.752239525
2023-10-26 14:03:44.260,103847,176,0,-7123,-2.180884525,-5700,-1.7451975
2023-10-26 14:03:44.300,103848,263,29,-6426,-1.96748055,-5703,-1.746116025
2023-10-26 14:03:44.300,103849,176,0,-6035,-1.847766125,-5720,-1.751321
2023-10-26 14:03:44.300,103850,264,30,-8051,-2.465014925,-5722,-1.75193335
2023-10-26 14:03:44.300,103851,173,0,-7479,-2.289882825,-5725,-1.752851875
2023-10-26 14:03:44.300,103852,264,32,-6310,-1.93196425,-5754,-1.76173095
2023-10-26 14:03:44.300,103853,174,0,-5862,-1.79479785,-5797,-1.774896475
2023-10-26 14:03:44.300,103854,264,32,-8257,-2.528086975,-5827,-1.784081725
2023-10-26 14:03:44.330,103855,173,0,-8026,-2.45736055,-5854,-1.79234845
2023-10-26 14:03:44.330,103856,263,32,-6122,-1.87440335,-5896,-1.8052078
2023-10-26 14:03:44.330,103857,171,0,-5957,-1.823884475,-5939,-1.818373325
2023-10-26 14:03:44.330,103858,262,32,-8322,-2.54798835,-5972,-1.8284771
2023-10-26 14:03:44.330,103859,171,0,-7847,-2.402555225,-6010,-1.84011175
2023-10-26 14:03:44.330,103860,263,33,-6394,-1.95768295,-6066,-1.85725755
2023-10-26 14:03:44.370,103861,171,0,-5826,-1.78377555,-6120,-1.873791
2023-10-26 14:03:44.370,103862,261,35,-8267,-2.531148725,-6149,-1.882670075
2023-10-26 14:03:44.370,103863,170,0,-8070,-2.47083225,-6177,-1.891242975
2023-10-26 14:03:44.370,103864,262,34,-6464,-1.9791152,-6235,-1.909001125
2023-10-26 14:03:44.370,103865,168,0,-5911,-1.809800425,-6304,-1.9301272
2023-10-26 14:03:44.400,103866,260,36,-8266,-2.53084255,-6359,-1.946966825
2023-10-26 14:03:44.400,103867,170,0,-7961,-2.437459175,-6423,-1.966562025
2023-10-26 14:03:44.400,103868,261,35,-6499,-1.989831325,-6514,-1.99442395
2023-10-26 14:03:44.400,103869,169,0,-5645,-1.728357875,-6601,-2.021061175
2023-10-26 14:03:44.400,103870,260,37,-8036,-2.4604223,-6657,-2.038206975
2023-10-26 14:03:44.400,103871,168,0,-7635,-2.337646125,-6717,-2.056577475
2023-10-26 14:03:44.430,103872,261,38,-6345,-1.942680375,-6811,-2.085357925
2023-10-26 14:03:44.430,103873,165,0,-5795,-1.774284125,-6898,-2.11199515
2023-10-26 14:03:44.430,103874,260,37,-8573,-2.624838275,-6942,-2.12546685
2023-10-26 14:03:44.430,103875,167,0,-7712,-2.3612216,-6975,-2.135570625
2023-10-26 14:03:44.430,103876,259,39,-6031,-1.846541425,-7026,-2.15118555
2023-10-26 14:03:44.430,103877,165,0,-5164,-1.5810877,-7067,-2.163738725
2023-10-26 14:03:44.470,103878,257,39,-7979,-2.442970325,-7067,-2.163738725
2023-10-26 14:03:44.470,103879,165,0,-7594,-2.32509295,-7065,-2.163126375
2023-10-26 14:03:44.470,103880,257,39,-6195,-1.896754125,-7101,-2.174148675
2023-10-26 14:03:44.470,103881,165,0,-5156,-1.5786383,-7140,-2.1860895
2023-10-26 14:03:44.470,103882,252,42,-7665,-2.346831375,-7135,-2.184558625
2023-10-26 14:03:44.510,103883,163,0,-7336,-2.2460998,-7116,-2.1787413
2023-10-26 14:03:44.510,103884,255,43,-6090,-1.86460575,-7136,-2.1848648
2023-10-26 14:03:44.510,103885,162,0,-4900,-1.5002575,-7165,-2.193743875
2023-10-26 14:03:44.510,103886,253,44,-7255,-2.221299625,-7155,-2.190682125
2023-10-26 14:03:44.510,103887,162,0,-7031,-2.152716425,-7129,-2.182721575
2023-10-26 14:03:44.510,103888,252,44,-6085,-1.863074875,-7133,-2.183946275
2023-10-26 14:03:44.540,103889,161,0,-4991,-1.528119425,-7141,-2.186395675
2023-10-26 14:03:44.540,103890,251,46,-7449,-2.280697575,-7114,-2.17812895
2023-10-26 14:03:44.540,103891,158,0,-6909,-2.115363075,-7081,-2.168025175
2023-10-26 14:03:44.540,103892,251,47,-5936,-1.8174548,-7082,-2.16833135
2023-10-26 14:03:44.540,103893,158,0,-4617,-1.413609975,-7086,-2.16955605
2023-10-26 14:03:44.540,103894,249,48,-7084,-2.1689437,-7047,-2.157615225
2023-10-26 14:03:44.540,103895,156,0,-6945,-2.126385375,-6995,-2.141694125
2023-10-26 14:03:44.540,103896,249,49,-5977,-1.830007975,-6979,-2.136795325
2023-10-26 14:03:44.540,103897,157,0,-4584,-1.4035062,-6971,-2.134345925
2023-10-26 14:03:44.540,103898,247,50,-7367,-2.255591225,-6923,-2.119649525
2023-10-26 14:03:44.570,103899,155,0,-7139,-2.185783325,-6861,-2.100666675
2023-10-26 14:03:44.570,103900,248,51,-5956,-1.8235783,-6834,-2.09239995
2023-10-26 14:03:44.570,103901,154,0,-4745,-1.452800375,-6818,-2.08750115
2023-10-26 14:03:44.570,103902,244,52,-6772,-2.0734171,-6759,-2.069436825
2023-10-26 14:03:44.570,103903,154,0,-6565,-2.010038875,-6682,-2.04586135
2023-10-26 14:03:44.570,103904,246,54,-5913,-1.810412775,-6643,-2.033920525
2023-10-26 14:03:44.570,103905,152,0,-4783,-1.464435025,-6623,-2.027797025
2023-10-26 14:03:44.570,103906,245,57,-6529,-1.999016575,-6567,-2.010651225
2023-10-26 14:03:44.610,103907,150,0,-6251,-1.913899925,-6493,-1.987994275
2023-10-26 14:03:44.610,103908,245,57,-5774,-1.76785445,-6457,-1.976971975
2023-10-26 14:03:44.610,103909,150,0,-4460,-1.3655405,-6443,-1.972685525
2023-10-26 14:03:44.610,103910,242,58,-5836,-1.7868373,-6405,-1.961050875
2023-10-26 14:03:44.610,103911,151,0,-4950,-1.51556625,-6354,-1.94543595
2023-10-26 14:03:44.610,103912,244,58,-4937,-1.511585975,-6335,-1.939618625
2023-10-26 14:03:44.640,103913,152,0,-4773,-1.461373275,-6330,-1.93808775
2023-10-26 14:03:44.640,103914,243,58,-7196,-2.2032353,-6294,-1.92706545
2023-10-26 14:03:44.640,103915,148,0,-6859,-2.100054325,-6246,-1.91236905
2023-10-26 14:03:44.640,103916,244,59,-5837,-1.787143475,-6238,-1.90991965
2023-10-26 14:03:44.640,103917,150,0,-4494,-1.37595045,-6251,-1.913899925
2023-10-26 14:03:44.640,103918,242,58,-6274,-1.92094195,-6238,-1.90991965
2023-10-26 14:03:44.640,103919,149,0,-5666,-1.73478755,-6208,-1.9007344
2023-10-26 14:03:44.640,103920,244,58,-4896,-1.4990328,-6203,-1.899203525
2023-10-26 14:03:44.680,103921,147,0,-3565,-1.091513875,-6212,-1.9019591
2023-10-26 14:03:44.680,103922,244,57,-4668,-1.4292249,-6189,-1.894917075
2023-10-26 14:03:44.680,103923,146,0,-4802,-1.47025235,-6139,-1.879608325
2023-10-26 14:03:44.680,103924,242,58,-3975,-1.217045625,-6107,-1.869810725
2023-10-26 14:03:44.680,103925,146,0,-3285,-1.005784875,-6095,-1.866136625
2023-10-26 14:03:44.680,103926,241,57,-4450,-1.36247875,-6054,-1.85358345
2023-10-26 14:03:44.680,103927,144,0,-3859,-1.181529325,-5977,-1.830007975
2023-10-26 14:03:44.720,103928,243,59,-3474,-1.06365195,-5896,-1.8052078
2023-10-26 14:03:44.720,103929,145,0,-3095,-0.947611625,-5819,-1.781632325
2023-10-26 14:03:44.720,103930,243,55,-4839,-1.481580825,-5733,-1.755301275
2023-10-26 14:03:44.720,103931,146,0,-4315,-1.321145125,-5660,-1.7329505
2023-10-26 14:03:44.720,103932,241,56,-3413,-1.044975275,-5629,-1.723459075
2023-10-26 14:03:44.720,103933,144,0,-3003,-0.919443525,-5625,-1.722234375
2023-10-26 14:03:44.720,103934,241,55,-4238,-1.29756965,-5613,-1.718560275
2023-10-26 14:03:44.720,103935,144,0,-3976,-1.2173518,-5601,-1.714886175
2023-10-26 14:03:44.720,103936,239,56,-3211,-0.983127925,-5611,-1.717947925
2023-10-26 14:03:44.760,103937,145,0,-2982,-0.91301385,-5623,-1.721622025
2023-10-26 14:03:44.760,103938,239,54,-4019,-1.230517325,-5597,-1.713661475
2023-10-26 14:03:44.760,103939,144,0,-3101,-0.949448675,-5539,-1.695903325
2023-10-26 14:03:44.760,103940,238,53,-2897,-0.886988975,-5473,-1.675695775
2023-10-26 14:03:44.760,103941,143,0,-2725,-0.834326875,-5384,-1.6484462
2023-10-26 14:03:44.760,103942,236,52,-3711,-1.136215425,-5242,-1.60496935
2023-10-26 14:03:44.760,103943,146,0,-3217,-0.984964975,-5063,-1.550164025
2023-10-26 14:03:44.760,103944,235,51,-2832,-0.8670876,-4890,-1.49719575
2023-10-26 14:03:44.760,103945,146,0,-2705,-0.828203375,-4724,-1.4463707
2023-10-26 14:03:44.790,103946,232,50,-3316,-1.0152763,-4541,-1.390340675
2023-10-26 14:03:44.790,103947,148,0,-2633,-0.806158775,-4353,-1.332779775
2023-10-26 14:03:44.790,103948,233,50,-2432,-0.7446176,-4191,-1.283179425
2023-10-26 14:03:44.790,103949,147,0,-2487,-0.761457225,-4060,-1.2430705
2023-10-26 14:03:44.790,103950,231,46,-2747,-0.841062725,-3952,-1.2100036
2023-10-26 14:03:44.790,103951,149,0,-2323,-0.711244525,-3875,-1.186428125
2023-10-26 14:03:44.790,103952,228,48,-2213,-0.677565275,-3842,-1.17632435
2023-10-26 14:03:44.790,103953,151,0,-2327,-0.712469225,-3829,-1.172344075
2023-10-26 14:03:44.830,103954,227,46,-2594,-0.79421795,-3805,-1.164995875
2023-10-26 14:03:44.830,103955,153,0,-1924,-0.5890807,-3767,-1.153361225
2023-10-26 14:03:44.830,103956,227,46,-1412,-0.4323191,-3726,-1.14080805
2023-10-26 14:03:44.830,103957,153,0,-2051,-0.627964925,-3672,-1.1242746
2023-10-26 14:03:44.830,103958,224,44,-1953,-0.597959775,-3597,-1.101311475
2023-10-26 14:03:44.830,103959,155,0,-1165,-0.356693875,-3519,-1.077429825
2023-10-26 14:03:44.830,103960,224,43,-1337,-0.409355975,-3463,-1.060284025
2023-10-26 14:03:44.830,103961,154,0,-1940,-0.5939795,-3418,-1.04650615
2023-10-26 14:03:44.830,103962,224,42,-1565,-0.479163875,-3359,-1.028441825
2023-10-26 14:03:44.870,103963,156,0,-714,-0.21860895,-3286,-1.00609105
2023-10-26 14:03:44.870,103964,221,42,-1044,-0.3196467,-3212,-0.9834341
2023-10-26 14:03:44.870,103965,158,0,-2080,-0.636844,-3138,-0.96077715
2023-10-26 14:03:44.870,103966,220,41,-1504,-0.4604872,-3061,-0.937201675
2023-10-26 14:03:44.870,103967,159,0,-151,-0.046232425,-2988,-0.9148509
2023-10-26 14:03:44.870,103968,218,42,-298,-0.09124015,-2926,-0.89586805
2023-10-26 14:03:44.870,103969,160,0,-1671,-0.511618425,-2865,-0.877191375
2023-10-26 14:03:44.870,103970,219,40,-1367,-0.418541225,-2794,-0.85545295
2023-10-26 14:03:44.870,103971,161,0,-151,-0.046232425,-2717,-0.831877475
2023-10-26 14:03:44.870,103972,217,40,-4,-0.0012247,-2640,-0.808302
2023-10-26 14:03:44.910,103973,162,0,-1445,-0.442422875,-2555,-0.782277125
2023-10-26 14:03:44.910,103974,215,40,-788,-0.2412659,-2463,-0.754109025
2023-10-26 14:03:44.910,103975,162,0,265,0.081136375,-2370,-0.72563475
2023-10-26 14:03:44.910,103976,213,40,50,0.01530875,-2271,-0.695323425
2023-10-26 14:03:44.910,103977,164,0,-960,-0.293928,-2166,-0.66317505
2023-10-26 14:03:44.910,103978,213,40,18,0.00551115,-2065,-0.632251375
2023-10-26 14:03:44.910,103979,169,0,1080,0.330669,-1972,-0.6037771
2023-10-26 14:03:44.910,103980,211,40,1177,0.360367975,-1877,-0.574690475
2023-10-26 14:03:44.940,103981,166,0,-647,-0.198095225,-1780,-0.5449915
2023-10-26 14:03:44.940,103982,212,39,312,0.0955266,-1695,-0.518966625
2023-10-26 14:03:44.940,103983,167,0,1493,0.457119275,-1620,-0.4960035
2023-10-26 14:03:44.940,103984,210,40,1294,0.39619045,-1534,-0.46967245
2023-10-26 14:03:44.940,103985,166,0,-391,-0.119714425,-1432,-0.4384426
2023-10-26 14:03:44.980,103986,209,39,995,0.304644125,-1341,-0.410580675
2023-10-26 14:03:44.980,103987,169,0,1892,0.5792831,-1277,-0.390985475
2023-10-26 14:03:44.980,103988,206,38,1865,0.571016375,-1215,-0.372002625
2023-10-26 14:03:44.980,103989,170,0,-141,-0.043170675,-1136,-0.3478148
2023-10-26 14:03:44.980,103990,207,39,1266,0.38761755,-1064,-0.3257702
2023-10-26 14:03:44.980,103991,171,0,2440,0.747067,-1007,-0.308318225
2023-10-26 14:03:44.980,103992,204,39,2323,0.711244525,-938,-0.28719215
2023-10-26 14:03:45.020,103993,173,0,148,0.0453139,-841,-0.257493175
2023-10-26 14:03:45.020,103994,204,38,1731,0.529988925,-744,-0.2277942
2023-10-26 14:03:45.020,103995,173,0,2843,0.870455525,-664,-0.2033002
2023-10-26 14:03:45.020,103996,203,38,2822,0.86402585,-577,-0.176662975
2023-10-26 14:03:45.020,103997,174,0,55,0.016839625,-458,-0.14022815
2023-10-26 14:03:45.020,103998,204,37,1845,0.564892875,-334,-0.10226245
2023-10-26 14:03:45.020,103999,175,0,3472,1.0630396,-225,-0.068889375
2023-10-26 14:03:45.020,104000,202,37,3294,1.00854045,-107,-0.032760725
2023-10-26 14:03:45.060,104001,178,0,233,0.071338775,32,0.0097976
2023-10-26 14:03:45.060,104002,201,35,1944,0.5952042,166,0.05082505
2023-10-26 14:03:45.060,104003,178,0,3738,1.14448215,278,0.08511665
2023-10-26 14:03:45.060,104004,198,32,3268,1.0005799,399,0.122163825
2023-10-26 14:03:45.060,104005,179,0,351,0.107467425,539,0.165028325
2023-10-26 14:03:45.060,104006,199,32,2627,0.804321725,660,0.2020755
2023-10-26 14:03:45.060,104007,180,0,3987,1.220719725,749,0.229325075
2023-10-26 14:03:45.060,104008,198,31,3502,1.07222485,845,0.258717875
2023-10-26 14:03:45.100,104009,182,0,409,0.125225575,968,0.2963774
2023-10-26 14:03:45.100,104010,196,30,2895,0.886376625,1078,0.33005665
2023-10-26 14:03:45.100,104011,182,0,4416,1.3520688,1156,0.3539383
2023-10-26 14:03:45.100,104012,196,28,4123,1.262359525,1245,0.381187875
2023-10-26 14:03:45.100,104013,184,0,577,0.176662975,1361,0.416704175
2023-10-26 14:03:45.100,104014,195,27,3122,0.95587835,1458,0.44640315
2023-10-26 14:03:45.100,104015,187,0,5070,1.55230725,1525,0.466916875
2023-10-26 14:03:45.100,104016,195,25,4949,1.515260075,1614,0.49416645
2023-10-26 14:03:45.140,104017,188,0,804,0.2461647,1739,0.532438325
2023-10-26 14:03:45.140,104018,195,24,3347,1.024767725,1839,0.563055825
2023-10-26 14:03:45.140,104019,190,0,5121,1.567922175,1890,0.57867075
2023-10-26 14:03:45.140,104020,191,24,4865,1.489541375,1950,0.59704125
2023-10-26 14:03:45.140,104021,192,0,889,0.272189575,2042,0.62520935
2023-10-26 14:03:45.140,104022,193,21,3796,1.1622403,2116,0.6478663
2023-10-26 14:03:45.140,104023,192,0,5491,1.681206925,2155,0.659807125
2023-10-26 14:03:45.140,104024,191,20,5054,1.54740845,2213,0.677565275
2023-10-26 14:03:45.180,104025,193,0,979,0.299745325,2308,0.7066519
2023-10-26 14:03:45.180,104026,192,19,4106,1.25715455,2381,0.729002675
2023-10-26 14:03:45.180,104027,196,0,5855,1.792654625,2410,0.73788175
2023-10-26 14:03:45.180,104028,190,18,5530,1.69314775,2457,0.752271975
2023-10-26 14:03:45.180,104029,199,0,1402,0.42925735,2553,0.781664775
2023-10-26 14:03:45.180,104030,190,19,4090,1.25225575,2636,0.8070773
2023-10-26 14:03:45.180,104031,197,0,6167,1.888181225,2678,0.81993665
2023-10-26 14:03:45.180,104032,189,15,6404,1.9607447,2749,0.841675075
2023-10-26 14:03:45.220,104033,198,0,1884,0.5768337,2875,0.880253125
2023-10-26 14:03:45.220,104034,190,14,4234,1.29634495,2978,0.91178915
2023-10-26 14:03:45.220,104035,201,0,6677,2.044330475,3029,0.927404075
2023-10-26 14:03:45.220,104036,191,14,6342,1.94176185,3104,0.9503672
2023-10-26 14:03:45.220,104037,204,0,2098,0.64235515,3230,0.98894525
2023-10-26 14:03:45.260,104038,189,14,4479,1.371357825,3330,1.01956275
2023-10-26 14:03:45.260,104039,205,0,6251,1.913899925,3372,1.0324221
2023-10-26 14:03:45.260,104040,191,12,6053,1.853277275,3430,1.05018025
2023-10-26 14:03:45.260,104041,205,0,1996,0.6111253,3536,1.0826348
2023-10-26 14:03:45.260,104042,189,10,4511,1.381155425,3616,1.1071288
2023-10-26 14:03:45.260,104043,205,0,6709,2.054128075,3638,1.11386465
2023-10-26 14:03:45.260,104044,188,8,6498,1.98952515,3679,1.126417825
2023-10-26 14:03:45.310,104045,210,0,2262,0.69256785,3778,1.15672915
2023-10-26 14:03:45.310,104046,189,9,4466,1.36737755,3861,1.182141675
2023-10-26 14:03:45.310,104047,210,0,6571,2.011875925,3884,1.1891837
2023-10-26 14:03:45.310,104048,189,7,6976,2.1358768,3931,1.203573925
2023-10-26 14:03:45.310,104049,212,0,2440,0.747067,4048,1.2393964
2023-10-26 14:03:45.310,104050,190,7,4624,1.4157532,4150,1.27062625
2023-10-26 14:03:45.310,104051,211,0,6692,2.0489231,4192,1.2834856
2023-10-26 14:03:45.310,104052,189,5,6944,2.1260792,4261,1.304611675
2023-10-26 14:03:45.310,104053,212,0,2272,0.6956296,4399,1.346863825
2023-10-26 14:03:45.350,104054,188,3,4597,1.407486475,4514,1.38207395
2023-10-26 14:03:45.350,104055,214,0,7098,2.17323015,4553,1.394014775
2023-10-26 14:03:45.350,104056,188,3,6730,2.06055775,4592,1.4059556
2023-10-26 14:03:45.350,104057,216,0,2132,0.6527651,4681,1.433205175
2023-10-26 14:03:45.350,104058,188,2,4486,1.37350105,4748,1.4537189
2023-10-26 14:03:45.350,104059,216,0,7152,2.1897636,4746,1.45310655
2023-10-26 14:03:45.350,104060,187,1,7067,2.163738725,4750,1.45433125
2023-10-26 14:03:45.350,104061,218,0,2110,0.64602925,4814,1.47392645
2023-10-26 14:03:45.350,104062,189,0,4328,1.3251254,4863,1.488929025
2023-10-26 14:03:45.380,104063,217,0,7052,2.1591461,4842,1.48249935
2023-10-26 14:03:45.380,104064,188,0,7143,2.187008025,4830,1.47882525
2023-10-26 14:03:45.380,104065,218,0,2331,0.713693925,4887,1.496277225
2023-10-26 14:03:45.380,104066,189,0,4817,1.474844975,4938,1.51189215
2023-10-26 14:03:45.380,104067,219,0,7781,2.382347675,4931,1.509748925
2023-10-26 14:03:45.380,104068,187,0,8048,2.4640964,4941,1.512810675
2023-10-26 14:03:45.380,104069,219,0,2830,0.86647525,5019,1.536692325
2023-10-26 14:03:45.420,104070,186,0,5408,1.6557944,5080,1.555369
2023-10-26 14:03:45.420,104071,220,0,7372,2.2571221,5074,1.55353195
2023-10-26 14:03:45.420,104072,188,0,6572,2.0121821,5079,1.555062825
2023-10-26 14:03:45.420,104073,221,0,1925,0.589386875,5145,1.575270375
2023-10-26 14:03:45.420,104074,190,0,3824,1.1708132,5190,1.58904825
2023-10-26 14:03:45.420,104075,224,0,6413,1.963500275,5162,1.58047535
2023-10-26 14:03:45.420,104076,188,0,6829,2.090869075,5141,1.574045675
2023-10-26 14:03:45.470,104077,221,0,2302,0.70481485,5181,1.586292675
2023-10-26 14:03:45.470,104078,187,0,4599,1.408098825,5207,1.594253225
2023-10-26 14:03:45.470,104079,222,0,7576,2.3195818,5166,1.58170005
2023-10-26 14:03:45.470,104080,187,0,7387,2.261714725,5139,1.573433325
2023-10-26 14:03:45.470,104081,223,0,2454,0.75135345,5186,1.58782355
2023-10-26 14:03:45.470,104082,184,0,5087,1.557512225,5223,1.599152025
2023-10-26 14:03:45.470,104083,224,0,7937,2.430110975,5194,1.59027295
2023-10-26 14:03:45.470,104084,184,0,7751,2.373162425,5191,1.589354425
2023-10-26 14:03:45.510,104085,225,0,2890,0.88484575,5280,1.616604
2023-10-26 14:03:45.510,104086,185,0,5083,1.556287525,5372,1.6447721
2023-10-26 14:03:45.510,104087,225,0,7954,2.43531595,5399,1.653038825
2023-10-26 14:03:45.510,104088,183,0,8212,2.5143091,5432,1.6631426
2023-10-26 14:03:45.510,104089,223,0,3281,1.004560175,5519,1.689779825
2023-10-26 14:03:45.510,104090,184,0,4887,1.496277225,5578,1.70784415
2023-10-26 14:03:45.510,104091,225,0,8130,2.48920275,5539,1.695903325
2023-10-26 14:03:45.510,104092,181,0,8283,2.536047525,5479,1.677532825
2023-10-26 14:03:45.550,104093,226,0,3415,1.045587625,5473,1.675695775
2023-10-26 14:03:45.550,104094,179,0,4892,1.4978081,5449,1.668347575
2023-10-26 14:03:45.550,104095,227,0,7992,2.4469506,5349,1.637730075
2023-10-26 14:03:45.550,104096,181,0,7899,2.418476325,5260,1.6104805
2023-10-26 14:03:45.550,104097,226,0,3204,0.9809847,5254,1.60864345
2023-10-26 14:03:45.550,104098,181,0,4725,1.446676875,5249,1.607112575
2023-10-26 14:03:45.550,104099,228,0,7617,2.332134975,5196,1.5908853
2023-10-26 14:03:45.550,104100,180,0,7963,2.438071525,5186,1.58782355
2023-10-26 14:03:45.590,104101,229,0,3381,1.035177675,5274,1.61476695
2023-10-26 14:03:45.590,104102,179,0,4469,1.368296075,5373,1.645078275
2023-10-26 14:03:45.590,104103,229,0,7421,2.272124675,5418,1.65885615
2023-10-26 14:03:45.590,104104,180,0,7810,2.39122675,5486,1.67967605
2023-10-26 14:03:45.590,104105,230,0,3297,1.009458975,5642,1.72743935
2023-10-26 14:03:45.590,104106,179,0,4288,1.3128784,5790,1.77275325
2023-10-26 14:03:45.590,104107,231,2,7440,2.277942,5849,1.790817575
2023-10-26 14:03:45.590,104108,180,0,7699,2.357241325,5896,1.8052078
2023-10-26 14:03:45.630,104109,231,3,3348,1.0250739,6003,1.837968525
2023-10-26 14:03:45.630,104110,179,0,4156,1.2724633,6082,1.86215635
2023-10-26 14:03:45.630,104111,230,3,7379,2.259265325,6062,1.85603285
2023-10-26 14:03:45.630,104112,182,0,7739,2.369488325,6037,1.848378475
2023-10-26 14:03:45.630,104113,233,6,3156,0.9662883,6090,1.86460575
2023-10-26 14:03:45.630,104114,183,0,4052,1.2406211,6143,1.880833025
2023-10-26 14:03:45.630,104115,234,6,7352,2.2509986,6114,1.87195395
2023-10-26 14:03:45.630,104116,184,0,7339,2.247018325,6072,1.8590946
2023-10-26 14:03:45.670,104117,232,7,3007,0.920668225,6094,1.86583045
2023-10-26 14:03:45.670,104118,185,0,3551,1.087227425,6110,1.87072925
2023-10-26 14:03:45.670,104119,235,7,6642,2.03361435,6040,1.849297
2023-10-26 14:03:45.670,104120,185,0,7314,2.23936395,5957,1.823884475
2023-10-26 14:03:45.670,104121,235,8,2918,0.89341865,5951,1.822047425
2023-10-26 14:03:45.670,104122,188,0,3690,1.12978575,5956,1.8235783
2023-10-26 14:03:45.670,104123,235,10,6718,2.05688365,5889,1.803064575
2023-10-26 14:03:45.670,104124,187,0,6930,2.12179275,5821,1.782244675
2023-10-26 14:03:45.670,104125,235,9,2710,0.82973425,5828,1.7843879
2023-10-26 14:03:45.670,104126,189,0,3303,1.011296025,5841,1.788368175
2023-10-26 14:03:45.710,104127,236,11,6343,1.942068025,5780,1.7696915
2023-10-26 14:03:45.710,104128,188,0,6707,2.053515725,5714,1.74948395
2023-10-26 14:03:45.710,104129,236,11,2632,0.8058526,5725,1.752851875
2023-10-26 14:03:45.710,104130,191,0,3096,0.9479178,5745,1.758975375
2023-10-26 14:03:45.710,104131,236,14,5936,1.8174548,5696,1.7439728
2023-10-26 14:03:45.710,104132,190,0,6574,2.01279445,5640,1.726827
2023-10-26 14:03:45.710,104133,238,13,2488,0.7617634,5650,1.72988875
2023-10-26 14:03:45.710,104134,191,0,2685,0.822079875,5661,1.733256675
2023-10-26 14:03:45.750,104135,239,14,5720,1.751321,5592,1.7121306
2023-10-26 14:03:45.750,104136,192,0,6073,1.859400775,5506,1.68579955
2023-10-26 14:03:45.750,104137,237,14,2534,0.77584745,5490,1.68090075
2023-10-26 14:03:45.750,104138,193,0,2733,0.836776275,5483,1.678757525
2023-10-26 14:03:45.750,104139,238,15,5597,1.713661475,5403,1.654263525
2023-10-26 14:03:45.790,104140,191,0,6242,1.91114435,5311,1.626095425
2023-10-26 14:03:45.790,104141,240,15,2889,0.884539575,5287,1.618747225
2023-10-26 14:03:45.790,104142,192,0,2910,0.89096925,5272,1.6141546
2023-10-26 14:03:45.790,104143,240,16,5896,1.8052078,5187,1.588129725
2023-10-26 14:03:45.790,104144,193,0,6336,1.9399248,5092,1.5590431
2023-10-26 14:03:45.790,104145,239,17,2824,0.8646382,5067,1.551388725
2023-10-26 14:03:45.790,104146,192,0,2887,0.883927225,5057,1.548326975
2023-10-26 14:03:45.830,104147,242,18,6213,1.902265275,4979,1.524445325
2023-10-26 14:03:45.830,104148,194,0,6779,2.075560325,4882,1.49474635
2023-10-26 14:03:45.830,104149,242,17,3481,1.065795175,4853,1.485867275
2023-10-26 14:03:45.830,104150,196,0,2851,0.872904925,4839,1.481580825
2023-10-26 14:03:45.830,104151,243,20,6108,1.8701169,4757,1.456474475
2023-10-26 14:03:45.830,104152,194,0,6915,2.117200125,4659,1.426469325
2023-10-26 14:03:45.830,104153,242,19,3637,1.113558475,4624,1.4157532
2023-10-26 14:03:45.830,104154,193,0,3058,0.93628315,4602,1.40901735
2023-10-26 14:03:45.870,104155,245,20,6004,1.8382747,4516,1.3826863
2023-10-26 14:03:45.870,104156,195,0,6497,1.989218975,4416,1.3520688
2023-10-26 14:03:45.870,104157,246,21,3229,0.988639075,4392,1.3447206
2023-10-26 14:03:45.870,104158,193,0,2520,0.771561,4402,1.34778235
2023-10-26 14:03:45.870,104159,247,20,5738,1.75683215,4367,1.337066225
2023-10-26 14:03:45.870,104160,191,0,6331,1.938393925,4324,1.3239007
2023-10-26 14:03:45.870,104161,246,21,3071,0.940263425,4348,1.3312489
2023-10-26 14:03:45.910,104162,194,0,2322,0.71093835,4393,1.345026775
2023-10-26 14:03:45.910,104163,248,21,5629,1.723459075,4382,1.34165885
2023-10-26 14:03:45.910,104164,194,0,6543,2.003303025,4368,1.3373724
2023-10-26 14:03:45.910,104165,249,24,3263,0.999049025,4428,1.3557429
2023-10-26 14:03:45.910,104166,193,0,2498,0.76482515,4516,1.3826863
2023-10-26 14:03:45.910,104167,252,25,5612,1.7182541,4547,1.392177725
2023-10-26 14:03:45.910,104168,192,0,6229,1.907164075,4559,1.395851825
2023-10-26 14:03:45.910,104169,252,24,2947,0.902297725,4631,1.417896425
2023-10-26 14:03:45.910,104170,189,0,2069,0.633476075,4720,1.445146
2023-10-26 14:03:45.910,104171,254,24,5051,1.546489925,4743,1.452188025
2023-10-26 14:03:45.910,104172,191,0,5687,1.741217225,4738,1.45065715
2023-10-26 14:03:45.950,104173,254,24,2589,0.792687075,4784,1.4647412
2023-10-26 14:03:45.950,104174,188,0,1946,0.59581655,4839,1.481580825
2023-10-26 14:03:45.950,104175,257,27,5540,1.6962095,4820,1.4757635
2023-10-26 14:03:45.950,104176,187,0,7258,2.22221815,4765,1.458923875
2023-10-26 14:03:45.950,104177,256,28,4064,1.2442952,4758,1.45678065
2023-10-26 14:03:45.950,104178,187,0,3816,1.1683638,4767,1.459536225
2023-10-26 14:03:45.950,104179,259,27,9336,2.8584498,4707,1.441165725
2023-10-26 14:03:45.950,104180,185,0,12319,3.771769825,4616,1.4133038
2023-10-26 14:03:45.950,104181,260,27,7858,2.40592315,4581,1.402587675
2023-10-26 14:03:45.990,104182,183,0,7477,2.289270475,4572,1.3998321
2023-10-26 14:03:45.990,104183,263,26,15600,4.77633,4514,1.38207395
2023-10-26 14:03:45.990,104184,183,0,16887,5.170377225,4442,1.36002935
2023-10-26 14:03:45.990,104185,263,28,9719,2.975714825,4434,1.35757995
2023-10-26 14:03:45.990,104186,182,0,7762,2.37653035,4452,1.3630911
2023-10-26 14:03:45.990,104187,264,29,15150,4.63855125,4411,1.350537925
2023-10-26 14:03:45.990,104188,179,0,64715,19.814115125,4338,1.32818715
2023-10-26 14:03:45.990,104189,263,29,112522,34.45142335,4315,1.321145125
2023-10-26 14:03:45.990,104190,179,0,-30700,-9.3995725,4313,1.320532775
2023-10-26 14:03:45.990,104191,265,28,-127778,-39.12242915,4252,1.3018561
2023-10-26 14:03:45.990,104192,179,0,-46870,-14.35042225,4173,1.277668275
2023-10-26 14:03:46.030,104193,265,28,65224,19.9699582,4173,1.277668275
2023-10-26 14:03:46.030,104194,181,0,-57728,-17.6748704,4227,1.294201725
2023-10-26 14:03:46.030,104195,267,29,-127716,-39.1034463,4268,1.3067549
2023-10-26 14:03:46.030,104196,183,0,-51269,-15.697286075,4372,1.3385971
2023-10-26 14:03:46.030,104197,272,27,58526,17.91919805,4653,1.424632275
2023-10-26 14:03:46.030,104198,191,0,-57761,-17.684974175,5051,1.546489925
2023-10-26 14:03:46.030,104199,283,31,-128005,-39.191930875,5483,1.678757525
2023-10-26 14:03:46.030,104200,208,0,-130154,-39.84990095,6044,1.8505217
2023-10-26 14:03:46.030,104201,309,28,-120221,-36.808664675,6806,2.08382705
2023-10-26 14:03:46.070,104202,233,0,-125266,-38.35331755,7633,2.337033775
2023-10-26 14:03:46.070,104203,328,31,-130985,-40.104332375,8356,2.5583983
2023-10-26 14:03:46.070,104204,250,0,-129870,-39.76294725,9208,2.8192594
2023-10-26 14:03:46.070,104205,339,29,-122166,-37.40417505,11344,3.4732492
2023-10-26 14:03:46.070,104206,251,0,-125997,-38.577131475,14985,4.588032375
2023-10-26 14:03:46.070,104207,335,32,-130896,-40.0770828,18700,5.7254725
2023-10-26 14:03:46.070,104208,243,0,-130099,-39.833061325,11373,3.482128275
2023-10-26 14:03:46.070,104209,326,30,-123963,-37.954371525,-3642,-1.11508935
2023-10-26 14:03:46.070,104210,234,0,-126199,-38.638978825,-626,-0.19166555
2023-10-26 14:03:46.070,104211,315,31,-130717,-40.022277475,-8711,-2.667090425
2023-10-26 14:03:46.110,104212,225,0,-129761,-39.729574175,-39708,-12.1575969
2023-10-26 14:03:46.110,104213,307,31,-123780,-37.8983415,-56795,-17.389209125
2023-10-26 14:03:46.110,104214,216,0,-125366,-38.38393505,-46808,-14.3314394
2023-10-26 14:03:46.110,104215,296,33,-130070,-39.82418225,-43131,-13.205633925
2023-10-26 14:03:46.110,104216,206,0,-127301,-38.976383675,-56647,-17.343895225
2023-10-26 14:03:46.110,104217,287,32,-121776,-37.2847668,-70684,-21.6416737
2023-10-26 14:03:46.110,104218,200,0,-123430,-37.79118025,-79557,-24.358364475
2023-10-26 14:03:46.110,104219,281,34,-127414,-39.01098145,-90873,-27.823040775
2023-10-26 14:03:46.150,104220,193,0,-125218,-38.33862115,-107240,-32.834207
2023-10-26 14:03:46.150,104221,274,34,-120363,-36.852141525,-124078,-37.98958165
2023-10-26 14:03:46.150,104222,188,0,-121556,-37.2174083,-136070,-41.66123225
2023-10-26 14:03:46.150,104223,267,36,-125289,-38.360359575,-140916,-43.1449563
2023-10-26 14:03:46.150,104224,184,0,-123153,-37.706369775,-137748,-42.1749939
2023-10-26 14:03:46.150,104225,265,35,-118211,-36.193252925,-128775,-39.427685625
2023-10-26 14:03:46.150,104226,181,0,-119285,-36.522084875,-119512,-36.5915866
2023-10-26 14:03:46.150,104227,260,38,-122678,-37.56093665,-116317,-35.613357475
2023-10-26 14:03:46.150,104228,176,0,-120451,-36.879084925,-120154,-36.78815095
2023-10-26 14:03:46.150,104229,260,40,-116063,-35.535589025,-126152,-38.6245886
2023-10-26 14:03:46.170,104230,171,0,-116875,-35.784203125,-129259,-39.575874325
2023-10-26 14:03:46.170,104231,254,40,-120356,-36.8499983,-131186,-40.16587355
2023-10-26 14:03:46.170,104232,171,0,-118492,-36.2792881,-131467,-40.251908725
2023-10-26 14:03:46.170,104233,254,40,-114196,-34.9639603,-130257,-39.881436975
2023-10-26 14:03:46.170,104234,167,0,-114836,-35.1599123,-128188,-39.2479609
2023-10-26 14:03:46.170,104235,251,45,-117751,-36.052412425,-126217,-38.644489975
2023-10-26 14:03:46.170,104236,165,0,-116152,-35.5628386,-125239,-38.345050825
2023-10-26 14:03:46.170,104237,249,44,-112076,-34.3148693,-125497,-38.424043975
2023-10-26 14:03:46.170,104238,165,0,-112660,-34.4936755,-126414,-38.70480645
2023-10-26 14:03:46.170,104239,246,44,-115259,-35.289424325,-127141,-38.927395675
2023-10-26 14:03:46.190,104240,162,0,-113652,-34.7974011,-127181,-38.939642675
2023-10-26 14:03:46.190,104241,245,46,-109943,-33.661798025,-126488,-38.7274634
2023-10-26 14:03:46.190,104242,161,0,-110415,-33.806312625,-125275,-38.356073125
2023-10-26 14:03:46.190,104243,244,46,-112845,-34.550317875,-123957,-37.952534475
2023-10-26 14:03:46.190,104244,159,0,-111217,-34.051864975,-123024,-37.6668732
2023-10-26 14:03:46.190,104245,243,47,-107913,-33.040262775,-122655,-37.553894625
2023-10-26 14:03:46.220,104246,157,0,-107975,-33.059245625,-122576,-37.5297068
2023-10-26 14:03:46.260,104247,242,50,-110580,-33.8568315,-122422,-37.48255585
2023-10-26 14:03:46.260,104248,154,0,-109522,-33.53289835,-122070,-37.37478225
2023-10-26 14:03:46.260,104249,244,50,-106427,-32.585286725,-121545,-37.214040375
2023-10-26 14:03:46.260,104250,154,0,-106512,-32.6113116,-120846,-37.00002405
2023-10-26 14:03:46.260,104251,241,53,-108026,-33.07486055,-120030,-36.75018525
2023-10-26 14:03:46.260,104252,153,0,-107270,-32.84339225,-119270,-36.51749225
2023-10-26 14:03:46.290,104253,243,55,-105163,-32.198281525,-118668,-36.3331749
2023-10-26 14:03:46.290,104254,150,0,-104876,-32.1104093,-118123,-36.166309525
2023-10-26 14:03:46.290,104255,240,56,-106110,-32.48822925,-117548,-35.9902589
2023-10-26 14:03:46.290,104256,151,0,-105268,-32.2304299,-117024,-35.8298232
2023-10-26 14:03:46.290,104257,241,58,-102615,-31.418147625,-116622,-35.70674085
2023-10-26 14:03:46.320,104258,148,0,-101906,-31.20106955,-116240,-35.589782
2023-10-26 14:03:46.320,104259,242,57,-103539,-31.701053325,-115740,-35.4366945
2023-10-26 14:03:46.320,104260,148,0,-102684,-31.4392737,-115120,-35.246866
2023-10-26 14:03:46.320,104261,243,57,-100166,-30.66832505,-114428,-35.0349929
2023-10-26 14:03:46.350,104262,145,0,-99844,-30.5697367,-113658,-34.79923815
2023-10-26 14:03:46.350,104263,240,59,-100666,-30.82141255,-112867,-34.557053725
2023-10-26 14:03:46.350,104264,142,0,-99826,-30.56422555,-112233,-34.362938775
2023-10-26 14:03:46.350,104265,244,61,-97964,-29.9941277,-111858,-34.24812315
2023-10-26 14:03:46.350,104266,146,0,-97650,-29.89798875,-111610,-34.17219175
2023-10-26 14:03:46.380,104267,242,59,-98145,-30.049545375,-111275,-34.069623125
2023-10-26 14:03:46.380,104268,142,0,-97239,-29.772150825,-110765,-33.913473875
2023-10-26 14:03:46.380,104269,244,61,-95528,-29.2482854,-110107,-33.712010725
2023-10-26 14:03:46.380,104270,142,0,-95387,-29.205114725,-109345,-33.478705375
2023-10-26 14:03:46.380,104271,244,61,-95781,-29.325747675,-108580,-33.2444815
2023-10-26 14:03:46.410,104272,140,0,-94813,-29.029370275,-107992,-33.0644506
2023-10-26 14:03:46.410,104273,244,62,-93688,-28.6849234,-107680,-32.968924
2023-10-26 14:03:46.410,104274,138,0,-93296,-28.5649028,-107511,-32.917180425
2023-10-26 14:03:46.410,104275,242,61,-93780,-28.7130915,-107256,-32.8391058
2023-10-26 14:03:46.410,104276,139,0,-93138,-28.51652715,-106804,-32.7007147
2023-10-26 14:03:46.410,104277,242,61,-91687,-28.072267225,-106163,-32.504456525
2023-10-26 14:03:46.410,104278,136,0,-91607,-28.047773225,-105378,-32.26410915
2023-10-26 14:03:46.440,104279,242,60,-92086,-28.19443105,-104558,-32.01304565
2023-10-26 14:03:46.440,104280,138,0,-90957,-27.848759475,-103864,-31.8005602
2023-10-26 14:03:46.440,104281,238,61,-88894,-27.21712045,-103380,-31.6523715
2023-10-26 14:03:46.440,104282,140,0,-88693,-27.155579275,-103019,-31.541842325
2023-10-26 14:03:46.440,104283,238,59,-88877,-27.211915475,-102613,-31.417535275
2023-10-26 14:03:46.440,104284,138,0,-88449,-27.080872575,-102057,-31.247301975
2023-10-26 14:03:46.470,104285,237,59,-87354,-26.74561095,-101349,-31.030530075
2023-10-26 14:03:46.470,104286,139,0,-86367,-26.443416225,-100534,-30.78099745
2023-10-26 14:03:46.470,104287,235,56,-86599,-26.514448825,-99699,-30.525341325
2023-10-26 14:03:46.470,104288,138,0,-85586,-26.20429355,-98973,-30.303058275
2023-10-26 14:03:46.510,104289,236,57,-84266,-25.80014255,-98432,-30.1374176
2023-10-26 14:03:46.510,104290,138,0,-84294,-25.80871545,-98018,-30.01066115
2023-10-26 14:03:46.510,104291,232,57,-84653,-25.918632275,-97602,-29.88329235
2023-10-26 14:03:46.510,104292,141,0,-84003,-25.719618525,-97101,-29.729898675
2023-10-26 14:03:46.510,104293,232,56,-82329,-25.207081575,-96500,-29.5458875
2023-10-26 14:03:46.510,104294,141,0,-81644,-24.9973517,-95821,-29.337994675
2023-10-26 14:03:46.510,104295,230,53,-82562,-25.27842035,-95133,-29.127346275
2023-10-26 14:03:46.540,104296,141,0,-81981,-25.100532675,-94536,-28.9445598
2023-10-26 14:03:46.540,104297,227,56,-80243,-24.568400525,-94069,-28.801576075
2023-10-26 14:03:46.540,104298,142,0,-79592,-24.3690806,-93670,-28.67941225
2023-10-26 14:03:46.540,104299,227,51,-79693,-24.400004275,-93250,-28.55081875
2023-10-26 14:03:46.540,104300,146,0,-77671,-23.780918425,-92765,-28.402323875
2023-10-26 14:03:46.540,104301,225,54,-75874,-23.23072195,-92208,-28.2317844
2023-10-26 14:03:46.570,104302,145,0,-76420,-23.3978935,-91584,-28.0407312
2023-10-26 14:03:46.570,104303,224,49,-77281,-23.661510175,-90920,-27.837431
2023-10-26 14:03:46.570,104304,147,0,-76423,-23.398812025,-90276,-27.6402543
2023-10-26 14:03:46.570,104305,221,49,-74543,-22.823203025,-89691,-27.461141925
2023-10-26 14:03:46.570,104306,150,0,-74620,-22.8467785,-89140,-27.2924395
2023-10-26 14:03:46.600,104307,221,46,-75718,-23.18295865,-88578,-27.12036915
2023-10-26 14:03:46.600,104308,151,0,-75144,-23.0072142,-87997,-26.942481475
2023-10-26 14:03:46.600,104309,220,48,-72983,-22.345570025,-87404,-26.7609197
2023-10-26 14:03:46.600,104310,149,0,-71780,-21.9772415,-86783,-26.570785025
2023-10-26 14:03:46.600,104311,220,45,-72176,-22.0984868,-86139,-26.373608325
2023-10-26 14:03:46.600,104312,153,0,-72218,-22.11134615,-85520,-26.184086
2023-10-26 14:03:46.600,104313,217,48,-69871,-21.392753425,-84962,-26.01324035
2023-10-26 14:03:46.630,104314,154,0,-69908,-21.4040819,-84444,-25.8546417
2023-10-26 14:03:46.630,104315,212,46,-71953,-22.030209775,-83928,-25.6966554
2023-10-26 14:03:46.630,104316,155,0,-71994,-22.04276295,-83398,-25.53438265
2023-10-26 14:03:46.630,104317,215,46,-69641,-21.322333175,-82828,-25.3598629
2023-10-26 14:03:46.630,104318,154,0,-68804,-21.0660647,-82191,-25.164829425
2023-10-26 14:03:46.630,104319,214,45,-70348,-21.5387989,-81501,-24.953568675
2023-10-26 14:03:46.660,104320,158,0,-69254,-21.20384345,-80812,-24.7426141
2023-10-26 14:03:46.660,104321,213,46,-66296,-20.2981778,-80154,-24.54115095
2023-10-26 14:03:46.660,104322,158,0,-64827,-19.848406725,-79509,-24.343668075
2023-10-26 14:03:46.660,104323,211,45,-65756,-20.1328433,-78856,-24.1437358
2023-10-26 14:03:46.660,104324,157,0,-65039,-19.913315825,-78221,-23.949314675
2023-10-26 14:03:46.660,104325,212,45,-61847,-18.936005225,-77631,-23.768671425
2023-10-26 14:03:46.660,104326,158,0,-61156,-18.7244383,-77055,-23.592314625
2023-10-26 14:03:46.660,104327,208,44,-62186,-19.03979855,-76463,-23.411059025
2023-10-26 14:03:46.690,104328,158,0,-61502,-18.83037485,-75888,-23.2350084
2023-10-26 14:03:46.690,104329,208,45,-58937,-18.045035975,-75357,-23.072429475
2023-10-26 14:03:46.690,104330,162,0,-59010,-18.06738675,-74825,-22.909544375
2023-10-26 14:03:46.690,104331,206,43,-61640,-18.872627,-74266,-22.73839255
2023-10-26 14:03:46.690,104332,162,0,-61186,-18.73362355,-73740,-22.5773445
2023-10-26 14:03:46.690,104333,204,45,-58714,-17.97675895,-73292,-22.4401781
2023-10-26 14:03:46.690,104334,163,0,-56915,-17.425950125,-72875,-22.312503125
2023-10-26 14:03:46.720,104335,204,44,-58512,-17.9149116,-72430,-22.17625525
2023-10-26 14:03:46.720,104336,164,0,-58034,-17.76855995,-71974,-22.03663945
2023-10-26 14:03:46.720,104337,204,45,-55042,-16.85248435,-71533,-21.901616275
2023-10-26 14:03:46.720,104338,169,0,-55129,-16.879121575,-71079,-21.762612825
2023-10-26 14:03:46.720,104339,203,43,-58188,-17.8157109,-70572,-21.6073821
2023-10-26 14:03:46.760,104340,169,0,-57874,-17.71957195,-70034,-21.44265995
2023-10-26 14:03:46.760,104341,199,43,-54204,-16.5959097,-69497,-21.278243975
2023-10-26 14:03:46.760,104342,168,0,-54132,-16.5738651,-68917,-21.100662475
2023-10-26 14:03:46.760,104343,197,40,-56689,-17.356754575,-68233,-20.891238775
2023-10-26 14:03:46.760,104344,170,0,-56085,-17.171824875,-67464,-20.6557902
2023-10-26 14:03:46.760,104345,196,39,-52816,-16.1709388,-66658,-20.40901315
2023-10-26 14:03:46.760,104346,172,0,-51922,-15.89721835,-65805,-20.147845875
2023-10-26 14:03:46.790,104347,197,38,-54467,-16.676433725,-64898,-19.87014515
2023-10-26 14:03:46.790,104348,171,0,-54110,-16.56712925,-64011,-19.598567925
2023-10-26 14:03:46.790,104349,193,35,-51415,-15.741987625,-63220,-19.3563835
2023-10-26 14:03:46.790,104350,175,0,-51247,-15.690550225,-62509,-19.138693075
2023-10-26 14:03:46.790,104351,195,35,-53106,-16.25972955,-61823,-18.928657025
2023-10-26 14:03:46.790,104352,175,0,-53194,-16.28667295,-61184,-18.7330112
2023-10-26 14:03:46.820,104353,191,34,-50265,-15.389886375,-60631,-18.563696425
2023-10-26 14:03:46.820,104354,178,0,-49152,-15.0491136,-60120,-18.407241
2023-10-26 14:03:46.820,104355,191,33,-51579,-15.792200325,-59606,-18.24986705
2023-10-26 14:03:46.820,104356,178,0,-51581,-15.792812675,-59134,-18.10535245
2023-10-26 14:03:46.820,104357,191,31,-48458,-14.83662815,-58739,-17.984413325
2023-10-26 14:03:46.850,104358,178,0,-47307,-14.484220725,-58353,-17.866229775
2023-10-26 14:03:46.850,104359,190,28,-49660,-15.2046505,-57918,-17.73304365
2023-10-26 14:03:46.850,104360,182,0,-49833,-15.257618775,-57486,-17.60077605
2023-10-26 14:03:46.880,104361,189,27,-46953,-14.375834775,-57112,-17.4862666
2023-10-26 14:03:46.880,104362,183,0,-45599,-13.961273825,-56757,-17.377574475
2023-10-26 14:03:46.880,104363,188,25,-48422,-14.82560585,-56359,-17.255716825
2023-10-26 14:03:46.910,104364,183,0,-48494,-14.84765045,-55950,-17.13049125
2023-10-26 14:03:46.910,104365,188,24,-45104,-13.8097172,-55586,-17.01904355
2023-10-26 14:03:46.910,104366,185,0,-44327,-13.571819225,-55233,-16.910963775
2023-10-26 14:03:46.910,104367,188,23,-46972,-14.3816521,-54837,-16.789718475
2023-10-26 14:03:46.910,104368,189,0,-46836,-14.3400123,-54442,-16.66877935
2023-10-26 14:03:46.940,104369,187,22,-43564,-13.3382077,-54118,-16.56957865
2023-10-26 14:03:46.940,104370,191,0,-41600,-12.73688,-53810,-16.47527675
2023-10-26 14:03:46.940,104371,187,19,-44043,-13.484865525,-53427,-16.358011725
2023-10-26 14:03:46.940,104372,192,0,-45177,-13.832067975,-53002,-16.22788735
2023-10-26 14:03:46.970,104373,187,18,-42581,-13.037237675,-52614,-16.10909145
2023-10-26 14:03:46.970,104374,192,0,-41266,-12.63461755,-52243,-15.995500525
2023-10-26 14:03:46.970,104375,186,17,-43170,-13.21757475,-51831,-15.869356425
2023-10-26 14:03:46.970,104376,196,0,-43686,-13.37556105,-51416,-15.7422938
2023-10-26 14:03:47.010,104377,186,17,-40893,-12.520414275,-51061,-15.633601675
2023-10-26 14:03:47.010,104378,198,0,-39677,-12.148105475,-50717,-15.528277475
2023-10-26 14:03:47.010,104379,188,16,-42836,-13.1153123,-50311,-15.403970425
2023-10-26 14:03:47.010,104380,199,0,-43210,-13.22982175,-49873,-15.269865775
2023-10-26 14:03:47.040,104381,184,15,-39389,-12.059927075,-49474,-15.14770195
2023-10-26 14:03:47.040,104382,201,0,-36970,-11.31928975,-49084,-15.0282937
2023-10-26 14:03:47.040,104383,185,14,-39176,-11.9947118,-48645,-14.893882875
2023-10-26 14:03:47.040,104384,204,0,-40515,-12.404680125,-48198,-14.75702265
2023-10-26 14:03:47.040,104385,186,12,-37479,-11.475132825,-47812,-14.6388391
2023-10-26 14:03:47.040,104386,205,0,-35117,-10.751947475,-47451,-14.528309925
2023-10-26 14:03:47.040,104387,184,11,-36984,-11.3235762,-47028,-14.3987979
2023-10-26 14:03:47.040,104388,205,0,-37722,-11.54953335,-46568,-14.2579574
2023-10-26 14:03:47.040,104389,187,10,-34623,-10.600697025,-46157,-14.132119475
2023-10-26 14:03:47.070,104390,205,0,-33259,-10.183074325,-45781,-14.016997675
2023-10-26 14:03:47.070,104391,186,9,-34615,-10.598247625,-45359,-13.887791825
2023-10-26 14:03:47.070,104392,207,0,-34661,-10.612331675,-44907,-13.749400725
2023-10-26 14:03:47.070,104393,185,7,-32643,-9.994470525,-44507,-13.626930725
2023-10-26 14:03:47.070,104394,209,0,-31967,-9.787496225,-44141,-13.514870675
2023-10-26 14:03:47.070,104395,185,7,-34304,-10.5030272,-43743,-13.393013025
2023-10-26 14:03:47.070,104396,209,0,-35290,-10.80491575,-43349,-13.272380075
2023-10-26 14:03:47.070,104397,184,6,-33157,-10.151844475,-43036,-13.1765473
2023-10-26 14:03:47.100,104398,211,0,-31837,-9.747693475,-42759,-13.091736825
2023-10-26 14:03:47.100,104399,184,5,-33832,-10.3585126,-42415,-12.986412625
2023-10-26 14:03:47.100,104400,213,0,-34440,-10.544667,-42009,-12.862105575
2023-10-26 14:03:47.100,104401,187,2,-33061,-10.122451675,-41624,-12.7442282
2023-10-26 14:03:47.100,104402,216,0,-31726,-9.71370805,-41253,-12.630637275
2023-10-26 14:03:47.100,104403,185,2,-33057,-10.121226975,-40815,-12.496532625
2023-10-26 14:03:47.100,104404,219,0,-33322,-10.20236335,-40319,-12.344669825
2023-10-26 14:03:47.100,104405,188,0,-32495,-9.949156625,-39833,-12.195868775
2023-10-26 14:03:47.100,104406,218,0,-31420,-9.6200185,-39339,-12.044618325
2023-10-26 14:03:47.130,104407,187,0,-31932,-9.7767801,-38759,-11.867036825
2023-10-26 14:03:47.130,104408,220,0,-33172,-10.1564371,-38110,-11.66832925
2023-10-26 14:03:47.130,104409,187,0,-31627,-9.683396725,-37487,-11.477582225
2023-10-26 14:03:47.130,104410,221,0,-30031,-9.194741425,-36919,-11.303674825
2023-10-26 14:03:47.130,104411,187,0,-30352,-9.2930236,-36352,-11.1300736
2023-10-26 14:03:47.130,104412,224,0,-31083,-9.516837525,-35789,-10.957697075
2023-10-26 14:03:47.130,104413,187,0,-29407,-9.003688225,-35300,-10.8079775
2023-10-26 14:03:47.130,104414,223,0,-28864,-8.8374352,-34902,-10.68611985
Time, Sample Count, IR Count, Red Count, Raw ECG, Raw ECG (mV), Filtered ECG, Filtered ECG (mV)
2023-10-26 14:03:53.755,104502,160,0,75521,23.122642175,61502,18.83037485
2023-10-26 14:03:53.785,104503,252,47,31616,9.6800288,61041,18.689228175
2023-10-26 14:03:53.815,104504,160,0,22270,6.81851725,60965,18.665958875
2023-10-26 14:03:53.815,104505,250,51,69986,21.42796355,60035,18.381216125
2023-10-26 14:03:53.815,104506,159,0,73479,22.497432825,58969,18.054833575
2023-10-26 14:03:53.815,104507,250,53,31700,9.7057475,58960,18.052078
2023-10-26 14:03:53.845,104508,158,0,20320,6.221476,59203,18.126478525
2023-10-26 14:03:53.845,104509,248,52,66861,20.471166675,58409,17.883375575
2023-10-26 14:03:53.845,104510,157,0,70910,21.71086925,57298,17.54321515
2023-10-26 14:03:53.845,104511,248,52,31512,9.6481866,57142,17.49545185
2023-10-26 14:03:53.845,104512,156,0,19135,5.858658625,57261,17.531886675
2023-10-26 14:03:53.885,104513,247,55,64101,19.626123675,56408,17.2707194
2023-10-26 14:03:53.885,104514,156,0,68650,21.01891375,55248,16.9155564
2023-10-26 14:03:53.885,104515,245,55,31400,9.613895,55032,16.8494226
2023-10-26 14:03:53.885,104516,156,0,17575,5.381025625,55138,16.88187715
2023-10-26 14:03:53.915,104517,245,56,61564,18.8493577,54372,16.6473471
2023-10-26 14:03:53.915,104518,154,0,66790,20.44942825,53374,16.34178445
2023-10-26 14:03:53.915,104519,246,55,31245,9.566437875,53328,16.3277004
2023-10-26 14:03:53.915,104520,153,0,16398,5.02065765,53569,16.401488575
2023-10-26 14:03:53.915,104521,243,57,58742,17.98533185,52847,16.180430225
2023-10-26 14:03:53.915,104522,154,0,64360,19.705423,51740,15.8414945
2023-10-26 14:03:53.915,104523,245,58,30830,9.43937525,51485,15.763419875
2023-10-26 14:03:53.945,104524,151,0,15419,4.720912325,51602,15.79924235
2023-10-26 14:03:53.945,104525,245,58,56509,17.301643075,50965,15.604208875
2023-10-26 14:03:53.945,104526,151,0,62235,19.054801125,50089,15.335999575
2023-10-26 14:03:53.945,104527,245,58,30635,9.379671125,50075,15.331713125
2023-10-26 14:03:53.945,104528,150,0,14398,4.40830765,50339,15.412543325
2023-10-26 14:03:53.945,104529,243,58,53502,16.38097485,49659,15.204344325
2023-10-26 14:03:53.945,104530,151,0,59396,18.1855703,48504,14.8507122
2023-10-26 14:03:53.975,104531,246,58,29328,8.9795004,48092,14.7245681
2023-10-26 14:03:53.975,104532,150,0,13798,4.22460265,48090,14.72395575
2023-10-26 14:03:53.975,104533,242,57,51065,15.634826375,47444,14.5261667
2023-10-26 14:03:53.975,104534,149,0,56782,17.38522885,46571,14.258875925
2023-10-26 14:03:53.975,104535,244,56,28701,8.787528675,46515,14.241730125
2023-10-26 14:03:53.975,104536,148,0,13178,4.03477415,46784,14.3240912
2023-10-26 14:03:53.975,104537,243,58,48915,14.976550125,46207,14.147428225
2023-10-26 14:03:53.975,104538,147,0,54893,16.806864275,45155,13.825332125
2023-10-26 14:03:53.975,104539,244,57,28164,8.6231127,44776,13.7092918
2023-10-26 14:03:54.005,104540,148,0,12416,3.8014688,44813,13.720620275
2023-10-26 14:03:54.005,104541,242,54,46504,14.2383622,44257,13.550386975
2023-10-26 14:03:54.005,104542,147,0,51692,15.8267981,43431,13.297486425
2023-10-26 14:03:54.005,104543,242,55,27141,8.309895675,43324,13.2647257
2023-10-26 14:03:54.005,104544,147,0,11064,3.3875202,43556,13.3357583
2023-10-26 14:03:54.005,104545,240,52,42764,13.0932677,43038,13.17715965
2023-10-26 14:03:54.005,104546,147,0,48368,14.8090724,42052,12.8752711
2023-10-26 14:03:54.005,104547,240,53,25642,7.85093935,41668,12.7576999
2023-10-26 14:03:54.005,104548,147,0,9965,3.051033875,41688,12.7638234
2023-10-26 14:03:54.035,104549,238,52,39710,12.15820925,41160,12.602163
2023-10-26 14:03:54.035,104550,147,0,45608,13.9640294,40317,12.344057475
2023-10-26 14:03:54.035,104551,237,53,25065,7.674276375,40087,12.273637225
2023-10-26 14:03:54.035,104552,147,0,9137,2.797520975,40198,12.30762265
2023-10-26 14:03:54.035,104553,235,51,37738,11.55443215,39677,12.148105475
2023-10-26 14:03:54.035,104554,150,0,44376,13.5868218,38743,11.862138025
2023-10-26 14:03:54.035,104555,235,51,24900,7.6237575,38363,11.745791525
2023-10-26 14:03:54.065,104556,149,0,8544,2.6159592,38379,11.750690325
2023-10-26 14:03:54.065,104557,234,48,36194,11.08169795,37899,11.603726325
2023-10-26 14:03:54.065,104558,151,0,43191,13.224004425,37095,11.357561625
2023-10-26 14:03:54.065,104559,231,48,24271,7.431173425,36829,11.276119075
2023-10-26 14:03:54.065,104560,153,0,8055,2.466239625,36900,11.2978575
2023-10-26 14:03:54.065,104561,230,47,35139,10.758683325,36417,11.149974975
2023-10-26 14:03:54.065,104562,155,0,42356,12.9683483,35536,10.8802348
2023-10-26 14:03:54.065,104563,231,47,24182,7.40392385,35124,10.7540907
2023-10-26 14:03:54.095,104564,153,0,7697,2.356628975,35054,10.73265845
2023-10-26 14:03:54.095,104565,229,44,34490,10.55997575,34500,10.5630375
2023-10-26 14:03:54.095,104566,154,0,41597,12.735961475,33582,10.28196885
2023-10-26 14:03:54.095,104567,227,45,23766,7.27655505,33118,10.13990365
2023-10-26 14:03:54.095,104568,156,0,7296,2.2338528,32996,10.1025503
2023-10-26 14:03:54.095,104569,228,42,32746,10.02600655,32422,9.92680585
2023-10-26 14:03:54.095,104570,158,0,40196,12.3070103,31510,9.64757425
2023-10-26 14:03:54.135,104571,225,45,23516,7.2000113,31060,9.5097955
2023-10-26 14:03:54.135,104572,157,0,6864,2.1015852,30990,9.48836325
2023-10-26 14:03:54.135,104573,225,40,32096,9.8269928,30537,9.349665975
2023-10-26 14:03:54.135,104574,161,0,39388,12.0596209,29790,9.12095325
2023-10-26 14:03:54.135,104575,224,43,23367,7.154391225,29493,9.030019275
2023-10-26 14:03:54.135,104576,160,0,6577,2.013712975,29555,9.049002125
2023-10-26 14:03:54.165,104577,222,39,31225,9.560314375,29243,8.953475525
2023-10-26 14:03:54.165,104578,163,0,38934,11.92061745,28638,8.76823965
2023-10-26 14:03:54.165,104579,221,40,23019,7.047842325,28450,8.71067875
2023-10-26 14:03:54.165,104580,163,0,6174,1.89032445,28594,8.75476795
2023-10-26 14:03:54.165,104581,220,38,29131,8.919183925,28363,8.684041525
2023-10-26 14:03:54.165,104582,166,0,36233,11.093638775,27828,8.5202379
2023-10-26 14:03:54.165,104583,217,39,21757,6.661449475,27680,8.474924
2023-10-26 14:03:54.195,104584,164,0,5541,1.696515675,27854,8.52819845
2023-10-26 14:03:54.195,104585,217,39,27276,8.3512293,27662,8.46941285
2023-10-26 14:03:54.195,104586,167,0,34284,10.4969037,27157,8.314794475
2023-10-26 14:03:54.195,104587,216,37,20893,6.396914275,27014,8.27101145
2023-10-26 14:03:54.195,104588,167,0,5293,1.620584275,27181,8.322142675
2023-10-26 14:03:54.195,104589,216,39,25787,7.895334725,26986,8.26243855
2023-10-26 14:03:54.195,104590,168,0,32774,10.03457945,26472,8.1050646
2023-10-26 14:03:54.225,104591,214,39,20054,6.14003345,26308,8.0548519
2023-10-26 14:03:54.225,104592,167,0,5214,1.59639645,26462,8.10200285
2023-10-26 14:03:54.225,104593,213,39,24290,7.43699075,26275,8.044748125
2023-10-26 14:03:54.225,104594,169,0,30398,9.30710765,25783,7.894110025
2023-10-26 14:03:54.225,104595,210,38,18805,5.757620875,25641,7.850633175
2023-10-26 14:03:54.225,104596,171,0,4767,1.459536225,25815,7.903907625
2023-10-26 14:03:54.225,104597,210,38,22587,6.915574725,25651,7.853694925
2023-10-26 14:03:54.225,104598,172,0,28745,8.801000375,25153,7.701219775
2023-10-26 14:03:54.225,104599,210,38,17863,5.469204025,24952,7.6396786
2023-10-26 14:03:54.255,104600,174,0,4302,1.31716485,25050,7.66968375
2023-10-26 14:03:54.255,104601,209,37,21031,6.439166425,24828,7.6017129
2023-10-26 14:03:54.255,104602,174,0,27521,8.426242175,24275,7.432398125
2023-10-26 14:03:54.255,104603,209,36,17675,5.411643125,23994,7.34636295
2023-10-26 14:03:54.255,104604,174,0,4001,1.225006175,24002,7.34881235
2023-10-26 14:03:54.255,104605,207,38,19696,6.0304228,23701,7.256653675
2023-10-26 14:03:54.255,104606,176,0,26247,8.036175225,23069,7.063151075
2023-10-26 14:03:54.285,104607,205,37,17470,5.34887725,22704,6.9513972
2023-10-26 14:03:54.285,104608,178,0,3725,1.140501875,22655,6.936394625
2023-10-26 14:03:54.285,104609,205,36,18824,5.7634382,22366,6.84791005
2023-10-26 14:03:54.285,104610,177,0,26006,7.96238705,21791,6.671859425
2023-10-26 14:03:54.285,104611,203,36,17571,5.379800925,21465,6.572046375
2023-10-26 14:03:54.315,104612,180,0,3605,1.103760875,21430,6.56133025
2023-10-26 14:03:54.315,104613,202,34,18293,5.600859275,21160,6.478663
2023-10-26 14:03:54.315,104614,180,0,24699,7.562216325,20611,6.310572925
2023-10-26 14:03:54.315,104615,200,33,15990,4.89573825,20290,6.21229075
2023-10-26 14:03:54.315,104616,180,0,2877,0.880865475,20245,6.198512875
2023-10-26 14:03:54.315,104617,199,33,15305,4.686008375,19976,6.1161518
2023-10-26 14:03:54.315,104618,183,0,22007,6.737993225,19433,5.949898775
2023-10-26 14:03:54.345,104619,198,30,15749,4.821950075,19108,5.8503919
2023-10-26 14:03:54.345,104620,182,0,3049,0.933527575,19057,5.834776975
2023-10-26 14:03:54.345,104621,197,30,15688,4.8032734,18804,5.7573147
2023-10-26 14:03:54.345,104622,182,0,22721,6.956602175,18300,5.6030025
2023-10-26 14:03:54.345,104623,194,27,15958,4.88594065,18016,5.5160488
2023-10-26 14:03:54.345,104624,187,0,2864,0.8768852,18008,5.5135994
2023-10-26 14:03:54.385,104625,197,26,14602,4.47076735,17816,5.4548138
2023-10-26 14:03:54.385,104626,185,0,21700,6.6439975,17387,5.323464725
2023-10-26 14:03:54.385,104627,194,25,15583,4.771125025,17180,5.2600865
2023-10-26 14:03:54.385,104628,188,0,2711,0.830040425,17246,5.28029405
2023-10-26 14:03:54.385,104629,194,24,13660,4.1823505,17135,5.246308625
2023-10-26 14:03:54.415,104630,187,0,20616,6.3121038,16781,5.137922675
2023-10-26 14:03:54.415,104631,193,23,14845,4.545167875,16606,5.08434205
2023-10-26 14:03:54.415,104632,190,0,2465,0.754721375,16667,5.103018725
2023-10-26 14:03:54.415,104633,192,21,12597,3.856886475,16540,5.0641345
2023-10-26 14:03:54.415,104634,192,0,19289,5.905809575,16137,4.940745975
2023-10-26 14:03:54.415,104635,191,21,14069,4.307576075,15866,4.85777255
2023-10-26 14:03:54.415,104636,192,0,2369,0.725328575,15828,4.8461379
2023-10-26 14:03:54.445,104637,192,21,11550,3.53632125,15636,4.7873523
2023-10-26 14:03:54.445,104638,194,0,18191,5.569629425,15203,4.654778525
2023-10-26 14:03:54.445,104639,191,18,13419,4.108562325,14930,4.57119275
2023-10-26 14:03:54.445,104640,197,0,2254,0.69011845,14912,4.5656816
2023-10-26 14:03:54.445,104641,192,17,10834,3.31709995,14763,4.520061525
2023-10-26 14:03:54.445,104642,198,0,16732,5.1229201,14394,4.40708295
2023-10-26 14:03:54.475,104643,190,15,12520,3.833311,14190,4.34462325
2023-10-26 14:03:54.475,104644,200,0,2040,0.624597,14248,4.3623814
2023-10-26 14:03:54.475,104645,191,13,9735,2.980613625,14196,4.3464603
2023-10-26 14:03:54.475,104646,201,0,15809,4.840320575,13926,4.26379305
2023-10-26 14:03:54.475,104647,189,15,12089,3.701349575,13779,4.218785325
2023-10-26 14:03:54.475,104648,201,0,2128,0.6515404,13852,4.2411361
2023-10-26 14:03:54.475,104649,190,14,9464,2.8976402,13795,4.223684125
2023-10-26 14:03:54.475,104650,203,0,14533,4.449641275,13498,4.13275015
2023-10-26 14:03:54.505,104651,189,12,11651,3.567244925,13294,4.07029045
2023-10-26 14:03:54.505,104652,206,0,2130,0.65215275,13293,4.069984275
2023-10-26 14:03:54.505,104653,188,11,8510,2.60554925,13165,4.030793875
2023-10-26 14:03:54.505,104654,207,0,13847,4.239605225,12793,3.916896775
2023-10-26 14:03:54.505,104655,188,8,11554,3.53754595,12508,3.8296369
2023-10-26 14:03:54.505,104656,207,0,1931,0.591223925,12447,3.810960225
2023-10-26 14:03:54.505,104657,187,9,7879,2.412352825,12316,3.7708513
2023-10-26 14:03:54.535,104658,208,0,13539,4.145303325,11988,3.6704259
2023-10-26 14:03:54.535,104659,187,9,10628,3.2540279,11747,3.596637725
2023-10-26 14:03:54.535,104660,208,0,1531,0.468753925,11706,3.58408455
2023-10-26 14:03:54.535,104661,189,7,7040,2.155472,11578,3.54489415
2023-10-26 14:03:54.535,104662,211,0,12604,3.8590297,11240,3.441407
2023-10-26 14:03:54.565,104663,187,5,10154,3.10890095,10974,3.35996445
2023-10-26 14:03:54.565,104664,212,0,1506,0.46109955,10911,3.340675425
2023-10-26 14:03:54.565,104665,190,4,6319,1.934719825,10796,3.3054653
2023-10-26 14:03:54.565,104666,213,0,11732,3.5920451,10505,3.216368375
2023-10-26 14:03:54.565,104667,187,5,10022,3.06848585,10282,3.14809135
2023-10-26 14:03:54.565,104668,215,0,1657,0.507331975,10247,3.137375225
2023-10-26 14:03:54.565,104669,186,3,5749,1.760200075,10156,3.1095133
2023-10-26 14:03:54.595,104670,216,0,10658,3.26321315,9889,3.027764575
2023-10-26 14:03:54.595,104671,187,1,9315,2.852020125,9683,2.964692525
2023-10-26 14:03:54.595,104672,216,0,1371,0.419765925,9661,2.957956675
2023-10-26 14:03:54.595,104673,187,0,5293,1.620584275,9594,2.93744295
2023-10-26 14:03:54.595,104674,216,0,10384,3.1793212,9362,2.86641035
2023-10-26 14:03:54.595,104675,185,0,8707,2.665865725,9187,2.812829725
2023-10-26 14:03:54.635,104676,214,0,1162,0.35577535,9178,2.81007415
2023-10-26 14:03:54.635,104677,186,0,5078,1.55475665,9114,2.79047895
2023-10-26 14:03:54.635,104678,218,0,10907,3.339450725,8885,2.720364875
2023-10-26 14:03:54.635,104679,187,0,9754,2.98643095,8699,2.663416325
2023-10-26 14:03:54.635,104680,218,0,1519,0.465079825,8664,2.6527002
2023-10-26 14:03:54.635,104681,186,0,5529,1.692841575,8581,2.627287675
2023-10-26 14:03:54.635,104682,217,0,10966,3.35751505,8338,2.55288715
2023-10-26 14:03:54.635,104683,187,0,9638,2.95091465,8134,2.49042745
2023-10-26 14:03:54.635,104684,218,0,1626,0.49784055,8093,2.477874275
2023-10-26 14:03:54.665,104685,187,0,5577,1.707537975,8028,2.4579729
2023-10-26 14:03:54.665,104686,220,0,10884,3.3324087,7810,2.39122675
2023-10-26 14:03:54.665,104687,187,0,9732,2.9796951,7617,2.332134975
2023-10-26 14:03:54.665,104688,219,0,1658,0.50763815,7575,2.319275625
2023-10-26 14:03:54.665,104689,183,0,4926,1.50821805,7506,2.29814955
2023-10-26 14:03:54.665,104690,222,0,10500,3.2148375,7291,2.232321925
2023-10-26 14:03:54.665,104691,185,0,9075,2.778538125,7104,2.1750672
2023-10-26 14:03:54.695,104692,220,0,1370,0.41945975,7065,2.163126375
2023-10-26 14:03:54.695,104693,185,0,5000,1.530875,7012,2.1468991
2023-10-26 14:03:54.695,104694,220,0,10648,3.2601514,6834,2.09239995
2023-10-26 14:03:54.695,104695,184,0,9228,2.8253829,6698,2.05076015
2023-10-26 14:03:54.695,104696,222,0,1386,0.42435855,6716,2.0562713
2023-10-26 14:03:54.725,104697,186,0,4815,1.474232625,6726,2.05933305
2023-10-26 14:03:54.725,104698,223,0,9544,2.9221342,6622,2.02749085
2023-10-26 14:03:54.725,104699,181,0,8550,2.61779625,6564,2.0097327
2023-10-26 14:03:54.725,104700,224,0,1554,0.47579595,6655,2.037594625
2023-10-26 14:03:54.725,104701,181,0,4780,1.4635165,6737,2.062700975
2023-10-26 14:03:54.725,104702,224,0,9415,2.882637625,6704,2.0525972
2023-10-26 14:03:54.725,104703,182,0,8507,2.604630725,6709,2.054128075
2023-10-26 14:03:54.725,104704,224,0,1645,0.503657875,6847,2.096380225
2023-10-26 14:03:54.755,104705,182,0,4220,1.2920585,6950,2.12791625
2023-10-26 14:03:54.755,104706,225,0,8875,2.717303125,6894,2.11077045
2023-10-26 14:03:54.755,104707,177,0,8242,2.52349435,6838,2.09362465
2023-10-26 14:03:54.755,104708,224,0,1616,0.4947788,6900,2.1126075
2023-10-26 14:03:54.755,104709,179,0,3605,1.103760875,6932,2.1224051
2023-10-26 14:03:54.755,104710,225,0,8413,2.575850275,6823,2.089032025
2023-10-26 14:03:54.785,104711,179,0,7875,2.411128125,6729,2.060251575
2023-10-26 14:03:54.785,104712,226,0,1502,0.45987485,6760,2.069743
2023-10-26 14:03:54.785,104713,180,0,3257,0.997211975,6764,2.0709677
2023-10-26 14:03:54.785,104714,227,0,8023,2.456442025,6633,2.030858775
2023-10-26 14:03:54.785,104715,177,0,7515,2.300905125,6512,1.9938116
2023-10-26 14:03:54.815,104716,229,0,1300,0.3980275,6523,1.997179525
2023-10-26 14:03:54.815,104717,173,0,3204,0.9809847,6529,1.999016575
2023-10-26 14:03:54.815,104718,228,0,7442,2.27855435,6415,1.964112625
2023-10-26 14:03:54.815,104719,178,0,7072,2.1652696,6308,1.9313519
2023-10-26 14:03:54.815,104720,228,2,1076,0.3294443,6323,1.935944525
2023-10-26 14:03:54.815,104721,179,0,2911,0.891275425,6326,1.93686305
2023-10-26 14:03:54.845,104722,228,3,7275,2.227423125,6201,1.898591175
2023-10-26 14:03:54.845,104723,179,0,7146,2.18792655,6084,1.8627687
2023-10-26 14:03:54.845,104724,228,4,1285,0.393434875,6094,1.86583045
2023-10-26 14:03:54.845,104725,180,0,2375,0.727165625,6100,1.8676675
2023-10-26 14:03:54.845,104726,232,5,6794,2.08015295,5977,1.830007975
2023-10-26 14:03:54.845,104727,181,0,7248,2.2191564,5849,1.790817575
2023-10-26 14:03:54.885,104728,231,6,1457,0.446096975,5832,1.7856126
2023-10-26 14:03:54.885,104729,184,0,2325,0.711856875,5809,1.778570575
2023-10-26 14:03:54.885,104730,233,5,6860,2.1003605,5671,1.736318425
2023-10-26 14:03:54.885,104731,184,0,6909,2.115363075,5541,1.696515675
2023-10-26 14:03:54.885,104732,232,8,1375,0.420990625,5526,1.69192305
2023-10-26 14:03:54.885,104733,185,0,2504,0.7666622,5507,1.686105725
2023-10-26 14:03:54.885,104734,235,10,7787,2.384184725,5371,1.644465925
2023-10-26 14:03:54.885,104735,185,0,7597,2.326011475,5226,1.60007055
2023-10-26 14:03:54.915,104736,234,10,1333,0.408131275,5184,1.5872112
2023-10-26 14:03:54.915,104737,187,0,1469,0.449771075,5151,1.577107425
2023-10-26 14:03:54.915,104738,232,10,4841,1.482193175,5024,1.5382232
2023-10-26 14:03:54.915,104739,187,0,5140,1.5737395,4902,1.50086985
2023-10-26 14:03:54.915,104740,233,10,939,0.287498325,4892,1.4978081
2023-10-26 14:03:54.915,104741,189,0,1659,0.507944325,4888,1.4965834
2023-10-26 14:03:54.915,104742,233,12,5828,1.7843879,4776,1.4622918
2023-10-26 14:03:54.945,104743,190,0,6488,1.9864634,4658,1.42616315
2023-10-26 14:03:54.945,104744,235,14,1398,0.42803265,4651,1.424019925
2023-10-26 14:03:54.945,104745,189,0,1658,0.50763815,4661,1.427081675
2023-10-26 14:03:54.945,104746,236,13,5918,1.81194365,4577,1.401362975
2023-10-26 14:03:54.945,104747,190,0,6352,1.9448236,4492,1.3753381
2023-10-26 14:03:54.975,104748,235,14,1338,0.40966215,4512,1.3814616
2023-10-26 14:03:54.975,104749,192,0,1649,0.504882575,4541,1.390340675
2023-10-26 14:03:54.975,104750,236,15,5488,1.6802884,4479,1.371357825
2023-10-26 14:03:54.975,104751,191,0,5761,1.763874175,4428,1.3557429
2023-10-26 14:03:54.975,104752,238,15,1044,0.3196467,4493,1.375644275
2023-10-26 14:03:54.975,104753,192,0,1710,0.52355925,4568,1.3986074
2023-10-26 14:03:54.975,104754,236,17,5337,1.634055975,4522,1.38452335
2023-10-26 14:03:55.005,104755,193,0,5574,1.70661945,4416,1.3520688
2023-10-26 14:03:55.005,104756,240,16,1165,0.356693875,4367,1.337066225
2023-10-26 14:03:55.005,104757,192,0,1873,0.573465775,4324,1.3239007
2023-10-26 14:03:55.005,104758,240,19,5405,1.654875875,4188,1.2822609
2023-10-26 14:03:55.005,104759,190,0,5907,1.808575725,4035,1.235416125
2023-10-26 14:03:55.005,104760,240,17,1490,0.45620075,3977,1.217657975
2023-10-26 14:03:55.035,104761,193,0,1723,0.527539525,3940,1.2063295
2023-10-26 14:03:55.035,104762,241,18,4841,1.482193175,3809,1.166220575
2023-10-26 14:03:55.035,104763,192,0,5268,1.6129299,3671,1.123968425
2023-10-26 14:03:55.035,104764,241,21,1539,0.471203325,3650,1.11753875
2023-10-26 14:03:55.035,104765,194,0,1431,0.438136425,3681,1.127030175
2023-10-26 14:03:55.075,104766,243,19,4924,1.5076057,3655,1.119069625
2023-10-26 14:03:55.075,104767,194,0,5376,1.6459968,3621,1.108659675
2023-10-26 14:03:55.075,104768,244,19,1251,0.383024925,3660,1.1206005
2023-10-26 14:03:55.075,104769,193,0,1046,0.32025905,3710,1.13590925
2023-10-26 14:03:55.075,104770,245,21,4668,1.4292249,3686,1.12856105
2023-10-26 14:03:55.075,104771,193,0,5154,1.57802595,3649,1.117232575
2023-10-26 14:03:55.075,104772,244,21,1179,0.360980325,3685,1.128254875
2023-10-26 14:03:55.104,104773,194,0,759,0.232386825,3725,1.140501875
2023-10-26 14:03:55.104,104774,246,21,4510,1.38084925,3666,1.12243755
2023-10-26 14:03:55.104,104775,196,0,5226,1.60007055,3568,1.0924324
2023-10-26 14:03:55.104,104776,246,23,1173,0.359143275,3541,1.084165675
2023-10-26 14:03:55.104,104777,194,0,734,0.22473245,3548,1.0863089
2023-10-26 14:03:55.104,104778,247,24,4279,1.310122825,3503,1.072531025
2023-10-26 14:03:55.134,104779,193,0,5222,1.59884585,3458,1.05875315
2023-10-26 14:03:55.134,104780,248,24,1385,0.424052375,3494,1.06977545
2023-10-26 14:03:55.134,104781,204,0,576,0.1763568,3547,1.086002725
2023-10-26 14:03:55.134,104782,250,24,4065,1.244601375,3515,1.076205125
2023-10-26 14:03:55.134,104783,190,0,5212,1.5957841,3451,1.056609925
2023-10-26 14:03:55.134,104784,251,24,1627,0.498146725,3450,1.05630375
2023-10-26 14:03:55.134,104785,190,0,921,0.281987175,3460,1.0593655
2023-10-26 14:03:55.134,104786,255,25,4234,1.29634495,3394,1.03915795
2023-10-26 14:03:55.169,104787,187,0,4647,1.422795225,3308,1.0128269
2023-10-26 14:03:55.169,104788,256,27,979,0.299745325,3293,1.008234275
2023-10-26 14:03:55.169,104789,188,0,128,0.0391904,3295,1.008846625
2023-10-26 14:03:55.169,104790,258,25,3578,1.09549415,3222,0.98649585
2023-10-26 14:03:55.169,104791,185,0,4612,1.4120791,3128,0.9577154
2023-10-26 14:03:55.169,104792,257,26,1039,0.318115825,3105,0.950673375
2023-10-26 14:03:55.169,104793,185,0,334,0.10226245,3104,0.9503672
2023-10-26 14:03:55.189,104794,260,26,3599,1.101923825,3038,0.93015965
2023-10-26 14:03:55.189,104795,183,0,4602,1.40901735,2957,0.905359475
2023-10-26 14:03:55.189,104796,261,28,1273,0.389760775,2956,0.9050533
2023-10-26 14:03:55.189,104797,181,0,87,0.026637225,2986,0.91423855
2023-10-26 14:03:55.189,104798,262,28,2991,0.915769425,2942,0.90076685
2023-10-26 14:03:55.236,104799,179,0,4327,1.324819225,2870,0.87872225
2023-10-26 14:03:55.236,104800,261,27,1282,0.39251635,2872,0.8793346
2023-10-26 14:03:55.236,104801,179,0,171,0.052355925,2913,0.891887775
2023-10-26 14:03:55.236,104802,261,29,3183,0.974555025,2896,0.8866828
2023-10-26 14:03:55.236,104803,178,0,4133,1.265421275,2850,0.87259875
2023-10-26 14:03:55.236,104804,261,29,1064,0.3257702,2863,0.876579025
2023-10-26 14:03:55.236,104805,178,0,-21,-0.006429675,2894,0.88607045
2023-10-26 14:03:55.266,104806,264,28,3150,0.96445125,2850,0.87259875
2023-10-26 14:03:55.266,104807,176,0,3988,1.2210259,2767,0.847186225
2023-10-26 14:03:55.266,104808,263,28,846,0.25902405,2740,0.8389195
2023-10-26 14:03:55.266,104809,176,0,234,0.07164495,2741,0.839225675
2023-10-26 14:03:55.266,104810,263,31,2887,0.883927225,2678,0.81993665
2023-10-26 14:03:55.266,104811,174,0,4284,1.3116537,2580,0.7899315
2023-10-26 14:03:55.312,104812,266,30,1325,0.405681875,2540,0.7776845
2023-10-26 14:03:55.312,104813,174,0,755,0.231162125,2534,0.77584745
2023-10-26 14:03:55.312,104814,262,32,3489,1.068244575,2471,0.756558425
2023-10-26 14:03:55.312,104815,173,0,4425,1.354824375,2382,0.72930885
2023-10-26 14:03:55.312,104816,265,31,1583,0.484675025,2361,0.722879175
2023-10-26 14:03:55.338,104817,172,0,746,0.22840655,2382,0.72930885
2023-10-26 14:03:55.338,104818,263,31,3584,1.0973312,2345,0.717980375
2023-10-26 14:03:55.338,104819,171,0,4886,1.49597105,2272,0.6956296
2023-10-26 14:03:55.338,104820,264,33,2075,0.635313125,2257,0.691036975
2023-10-26 14:03:55.338,104821,171,0,474,0.14512695,2279,0.697772825
2023-10-26 14:03:55.338,104822,261,34,3265,0.999661375,2252,0.6895061
2023-10-26 14:03:55.338,104823,169,0,4647,1.422795225,2194,0.67174795
2023-10-26 14:03:55.368,104824,261,34,1844,0.5645867,2184,0.6686862
2023-10-26 14:03:55.368,104825,169,0,197,0.060316475,2199,0.673278825
2023-10-26 14:03:55.368,104826,259,35,3036,0.9295473,2160,0.661338
2023-10-26 14:03:55.368,104827,171,0,4881,1.494440175,2089,0.639599575
2023-10-26 14:03:55.368,104828,259,35,1926,0.58969305,2073,0.634700775
2023-10-26 14:03:55.368,104829,169,0,145,0.044395375,2104,0.6441922
2023-10-26 14:03:55.402,104830,258,37,3184,0.9748612,2107,0.645110725
2023-10-26 14:03:55.402,104831,169,0,5061,1.549551675,2100,0.6429675
2023-10-26 14:03:55.402,104832,259,35,1838,0.56274965,2152,0.6588886
2023-10-26 14:03:55.402,104833,168,0,241,0.073788175,2235,0.684301125
2023-10-26 14:03:55.402,104834,258,37,3451,1.056609925,2268,0.6944049
2023-10-26 14:03:55.435,104835,165,0,4505,1.379318375,2276,0.6968543
2023-10-26 14:03:55.435,104836,257,37,1929,0.590611575,2345,0.717980375
2023-10-26 14:03:55.435,104837,167,0,10,0.00306175,2452,0.7507411
2023-10-26 14:03:55.435,104838,255,40,3073,0.940875775,2508,0.7678869
2023-10-26 14:03:55.435,104839,166,0,4747,1.453412725,2526,0.77339805
2023-10-26 14:03:55.435,104840,256,42,1998,0.61173765,2584,0.7911562
2023-10-26 14:03:55.455,104841,164,0,-26,-0.00796055,2660,0.8144255
2023-10-26 14:03:55.455,104842,252,43,2592,0.7936056,2663,0.815344025
2023-10-26 14:03:55.455,104843,162,0,4027,1.232966725,2618,0.80156615
2023-10-26 14:03:55.455,104844,253,42,1567,0.479776225,2619,0.801872325
2023-10-26 14:03:55.455,104845,163,0,-54,-0.01653345,2648,0.8107514
2023-10-26 14:03:55.455,104846,251,46,2170,0.66439975,2616,0.8009538
2023-10-26 14:03:55.502,104847,162,0,3713,1.136827775,2548,0.7801339
2023-10-26 14:03:55.502,104848,253,45,1545,0.473040375,2538,0.77707215
2023-10-26 14:03:55.502,104849,159,0,-365,-0.111753875,2573,0.787788275
2023-10-26 14:03:55.502,104850,250,47,2271,0.695323425,2564,0.7850327
2023-10-26 14:03:55.502,104851,160,0,4055,1.241539625,2521,0.771867175
2023-10-26 14:03:55.502,104852,251,47,1940,0.5939795,2522,0.77217335
2023-10-26 14:03:55.502,104853,159,0,-201,-0.061541175,2561,0.784114175
2023-10-26 14:03:55.532,104854,249,49,2617,0.801259975,2550,0.78074625
2023-10-26 14:03:55.532,104855,157,0,4641,1.420958175,2500,0.7654375
2023-10-26 14:03:55.532,104856,248,51,2143,0.656133025,2502,0.76604985
2023-10-26 14:03:55.532,104857,159,0,63,0.019289025,2549,0.780440075
2023-10-26 14:03:55.532,104858,246,52,3152,0.9650636,2542,0.77829685
2023-10-26 14:03:55.532,104859,158,0,3841,1.176018175,2475,0.757783125
2023-10-26 14:03:55.532,104860,246,53,1246,0.38149405,2439,0.746760825
2023-10-26 14:03:55.572,104861,155,0,-828,-0.2535129,2436,0.7458423
2023-10-26 14:03:55.572,104862,245,53,633,0.193808775,2383,0.729615025
2023-10-26 14:03:55.572,104863,157,0,2745,0.840450375,2281,0.698385175
2023-10-26 14:03:55.572,104864,245,56,1372,0.4200721,2219,0.679402325
2023-10-26 14:03:55.572,104865,154,0,-245,-0.075012875,2201,0.673891175
2023-10-26 14:03:55.572,104866,244,57,2236,0.6846073,2142,0.65582685
2023-10-26 14:03:55.572,104867,154,0,4284,1.3116537,2040,0.624597
2023-10-26 14:03:55.572,104868,245,56,2400,0.73482,1985,0.607757375
2023-10-26 14:03:55.572,104869,151,0,265,0.081136375,1987,0.608369725
2023-10-26 14:03:55.602,104870,244,57,2564,0.7850327,1962,0.60071535
2023-10-26 14:03:55.602,104871,153,0,3970,1.21551475,1910,0.58479425
2023-10-26 14:03:55.602,104872,244,58,2612,0.7997291,1918,0.58724365
2023-10-26 14:03:55.602,104873,152,0,243,0.074400525,1981,0.606532675
2023-10-26 14:03:55.602,104874,244,59,2370,0.72563475,2019,0.618167325
2023-10-26 14:03:55.602,104875,151,0,4078,1.24858165,2034,0.62275995
2023-10-26 14:03:55.602,104876,244,59,2565,0.785338875,2086,0.63868105
2023-10-26 14:03:55.632,104877,149,0,5,0.001530875,2161,0.661644175
2023-10-26 14:03:55.632,104878,244,57,2104,0.6441922,2167,0.663481225
2023-10-26 14:03:55.632,104879,150,0,4161,1.273994175,2087,0.638987225
2023-10-26 14:03:55.632,104880,246,59,2586,0.79176855,2008,0.6147994
2023-10-26 14:03:55.632,104881,149,0,-216,-0.0661338,1962,0.60071535
2023-10-26 14:03:55.632,104882,244,56,2042,0.62520935,1880,0.575609
2023-10-26 14:03:55.662,104883,150,0,4026,1.23266055,1758,0.53825565
2023-10-26 14:03:55.662,104884,243,57,2307,0.706345725,1686,0.51621105
2023-10-26 14:03:55.662,104885,148,0,-265,-0.081136375,1683,0.515292525
2023-10-26 14:03:55.662,104886,244,55,2018,0.61786115,1667,0.510393725
2023-10-26 14:03:55.662,104887,147,0,4415,1.351762625,1635,0.500596125
2023-10-26 14:03:55.662,104888,243,55,2236,0.6846073,1668,0.5106999
2023-10-26 14:03:55.662,104889,149,0,-276,-0.0845043,1777,0.544072975
2023-10-26 14:03:55.662,104890,242,55,2051,0.627964925,1880,0.575609
2023-10-26 14:03:55.692,104891,147,0,4265,1.305836375,1951,0.597347425
2023-10-26 14:03:55.692,104892,242,54,2559,0.783501825,2047,0.626740225
2023-10-26 14:03:55.692,104893,147,0,-355,-0.108692125,2178,0.66684915
2023-10-26 14:03:55.692,104894,241,53,1938,0.59336715,2263,0.692874025
2023-10-26 14:03:55.692,104895,147,0,4515,1.382380125,2284,0.6993037
2023-10-26 14:03:55.692,104896,240,54,2855,0.874129625,2314,0.70848895
2023-10-26 14:03:55.722,104897,148,0,-117,-0.035822475,2364,0.7237977
2023-10-26 14:03:55.722,104898,238,52,2242,0.68644435,2353,0.720429775
2023-10-26 14:03:55.722,104899,149,0,4241,1.298488175,2274,0.69624195
2023-10-26 14:03:55.722,104900,238,50,2576,0.7887068,2215,0.678177625
2023-10-26 14:03:55.722,104901,147,0,-233,-0.071338775,2208,0.6760344
2023-10-26 14:03:55.752,104902,237,48,2087,0.638987225,2184,0.6686862
2023-10-26 14:03:55.752,104903,150,0,4282,1.31104135,2131,0.652458925
2023-10-26 14:03:55.752,104904,235,52,2476,0.7580893,2121,0.649397175
2023-10-26 14:03:55.752,104905,148,0,-398,-0.12185765,2157,0.660419475
2023-10-26 14:03:55.752,104906,233,48,1883,0.576527525,2154,0.65950095
2023-10-26 14:03:55.752,104907,153,0,4012,1.2283741,2096,0.6417428
2023-10-26 14:03:55.752,104908,233,47,2945,0.901685375,2067,0.632863725
2023-10-26 14:03:55.752,104909,150,0,-140,-0.0428645,2097,0.642048975
2023-10-26 14:03:55.782,104910,229,46,1734,0.53090745,2105,0.644498375
2023-10-26 14:03:55.782,104911,154,0,3859,1.181529325,2072,0.6343946
2023-10-26 14:03:55.782,104912,229,48,2727,0.834939225,2078,0.63623165
2023-10-26 14:03:55.782,104913,154,0,-135,-0.041333625,2143,0.656133025
2023-10-26 14:03:55.782,104914,228,45,1771,0.542235925,2176,0.6662368
2023-10-26 14:03:55.782,104915,157,0,3325,1.018031875,2152,0.6588886
2023-10-26 14:03:55.822,104916,227,45,2231,0.683076425,2156,0.6601133
2023-10-26 14:03:55.822,104917,154,0,-492,-0.1506381,2213,0.677565275
2023-10-26 14:03:55.822,104918,225,43,1675,0.512843125,2240,0.685832
2023-10-26 14:03:55.822,104919,159,0,3667,1.122743725,2210,0.67664675
2023-10-26 14:03:55.822,104920,225,44,2195,0.672054125,2204,0.6748097
2023-10-26 14:03:55.852,104921,160,0,-261,-0.079911675,2246,0.68766905
2023-10-26 14:03:55.852,104922,222,41,1784,0.5462162,2255,0.690424625
2023-10-26 14:03:55.852,104923,162,0,3834,1.17387495,2201,0.673891175
2023-10-26 14:03:55.852,104924,221,42,2651,0.811669925,2169,0.664093575
2023-10-26 14:03:55.852,104925,163,0,104,0.0318422,2195,0.672054125
2023-10-26 14:03:55.852,104926,222,39,2026,0.62031055,2197,0.672666475
2023-10-26 14:03:55.882,104927,164,0,3773,1.155198275,2140,0.6552145
2023-10-26 14:03:55.882,104928,219,41,3084,0.9442437,2104,0.6441922
2023-10-26 14:03:55.882,104929,164,0,166,0.05082505,2125,0.650621875
2023-10-26 14:03:55.882,104930,218,39,2064,0.6319452,2127,0.651234225
2023-10-26 14:03:55.882,104931,163,0,3796,1.1622403,2076,0.6356193
2023-10-26 14:03:55.882,104932,218,40,3036,0.9295473,2043,0.625515525
2023-10-26 14:03:55.912,104933,166,0,-86,-0.02633105,2059,0.630414325
2023-10-26 14:03:55.912,104934,216,38,1421,0.435074675,2051,0.627964925
2023-10-26 14:03:55.912,104935,167,0,3585,1.097637375,1985,0.607757375
2023-10-26 14:03:55.912,104936,215,38,3020,0.9246485,1933,0.591836275
2023-10-26 14:03:55.942,104937,168,0,-194,-0.05939795,1926,0.58969305
2023-10-26 14:03:55.942,104938,215,38,1535,0.469978625,1907,0.583875725
2023-10-26 14:03:55.942,104939,169,0,3550,1.08692125,1851,0.566729925
2023-10-26 14:03:55.942,104940,213,40,2705,0.828203375,1824,0.5584632
2023-10-26 14:03:55.942,104941,169,0,-326,-0.09981305,1853,0.567342275
2023-10-26 14:03:55.942,104942,212,38,1236,0.3784323,1872,0.5731596
2023-10-26 14:03:55.972,104943,170,0,3129,0.958021575,1856,0.5682608
2023-10-26 14:03:55.972,104944,208,39,2822,0.86402585,1871,0.572853425
2023-10-26 14:03:55.972,104945,173,0,-328,-0.1004254,1947,0.596122725
2023-10-26 14:03:55.972,104946,211,37,1181,0.361592675,2010,0.61541175
2023-10-26 14:03:55.972,104947,172,0,3266,0.99996755,2026,0.62031055
2023-10-26 14:03:55.972,104948,211,37,2961,0.906584175,2064,0.6319452
2023-10-26 14:03:56.002,104949,175,0,-267,-0.081748725,2150,0.65827625
2023-10-26 14:03:56.002,104950,208,36,1319,0.403844825,2202,0.67419735
2023-10-26 14:03:56.002,104951,174,0,3595,1.100699125,2182,0.66807385
2023-10-26 14:03:56.002,104952,208,37,3038,0.93015965,2165,0.662868875
2023-10-26 14:03:56.002,104953,174,0,-206,-0.06307205,2191,0.670829425
2023-10-26 14:03:56.002,104954,206,37,1153,0.353019775,2193,0.671441775
