Time, Sample Count, IR Count, Red Count, Raw ECG, Raw ECG (mV), Filtered ECG, Filtered ECG (mV)
2023-10-26 13:45:18.234,77284,236990,203718,212,0.0649091,733,0.224426275
2023-10-26 13:45:18.237,77285,236912,203664,754,0.23085595,714,0.21860895
2023-10-26 13:45:18.237,77286,236839,203609,1786,0.54682855,706,0.21615955
2023-10-26 13:45:18.237,77287,236774,203561,2240,0.685832,713,0.218302775
2023-10-26 13:45:18.237,77288,236717,203520,2706,0.82850955,728,0.2228954
2023-10-26 13:45:18.237,77289,236707,203504,2875,0.880253125,744,0.2277942
2023-10-26 13:45:18.237,77290,236664,203481,2837,0.868618475,757,0.231774475
2023-10-26 13:45:18.237,77291,236669,203464,3179,0.973330325,757,0.231774475
2023-10-26 13:45:18.237,77292,236648,203437,3417,1.046199975,737,0.225650975
2023-10-26 13:45:18.237,77293,236627,203415,3433,1.051098775,701,0.214628675
2023-10-26 13:45:18.237,77294,236596,203384,3124,0.9564907,657,0.201156975
2023-10-26 13:45:18.237,77295,236571,203361,3405,1.042525875,607,0.185848225
2023-10-26 13:45:18.237,77296,236533,203314,4395,1.345639125,550,0.16839625
2023-10-26 13:45:18.237,77297,236531,203314,4408,1.3496194,492,0.1506381
2023-10-26 13:45:18.237,77298,236525,203297,3788,1.1597909,445,0.136247875
2023-10-26 13:45:18.237,77299,236491,203285,3692,1.1303981,406,0.12430705
2023-10-26 13:45:18.237,77300,236496,203289,4031,1.234191425,370,0.11328475
2023-10-26 13:45:18.353,77301,236524,203295,4022,1.23143585,339,0.103793325
2023-10-26 13:45:18.353,77302,236580,203301,3291,1.007621925,327,0.100119225
2023-10-26 13:45:18.353,77303,236582,203299,2449,0.749822575,351,0.107467425
2023-10-26 13:45:18.353,77304,236584,203297,1916,0.5866313,417,0.127674975
2023-10-26 13:45:18.383,77305,236635,203301,2051,0.627964925,526,0.16104805
2023-10-26 13:45:18.383,77306,236620,203297,1879,0.575302825,684,0.2094237
2023-10-26 13:45:18.383,77307,236643,203297,2029,0.621229075,892,0.2731081
2023-10-26 13:45:18.383,77308,236663,203299,2373,0.726553275,1388,0.4249709
2023-10-26 13:45:18.383,77309,236701,203293,2486,0.76115105,2091,0.640211925
2023-10-26 13:45:18.383,77310,236721,203297,2488,0.7617634,2532,0.7752351
2023-10-26 13:45:18.383,77311,236758,203315,2765,0.846573875,2689,0.823304575
2023-10-26 13:45:18.383,77312,236778,203325,3349,1.025380075,2725,0.834326875
2023-10-26 13:45:18.413,77313,236835,203341,3426,1.04895555,2782,0.85177885
2023-10-26 13:45:18.413,77314,236864,203333,2633,0.806158775,2844,0.8707617
2023-10-26 13:45:18.413,77315,236900,203358,2236,0.6846073,3085,0.944549875
2023-10-26 13:45:18.413,77316,236921,203345,2293,0.702059275,3295,1.008846625
2023-10-26 13:45:18.413,77317,236958,203387,2085,0.638374875,3478,1.06487665
2023-10-26 13:45:18.413,77318,236979,203371,1536,0.4702848,3629,1.111109075
2023-10-26 13:45:18.443,77319,236979,203349,1357,0.415479475,3724,1.1401957
2023-10-26 13:45:18.443,77320,236992,203349,1615,0.494472625,3741,1.145400675
2023-10-26 13:45:18.443,77321,236978,203347,1694,0.51866045,3686,1.12856105
2023-10-26 13:45:18.443,77322,236985,203332,1471,0.450383425,3591,1.099474425
2023-10-26 13:45:18.443,77323,236986,203333,1153,0.353019775,3476,1.0642643
2023-10-26 13:45:18.473,77324,236979,203304,1123,0.343834525,3337,1.021705975
2023-10-26 13:45:18.473,77325,236966,203282,1103,0.337711025,3183,0.974555025
2023-10-26 13:45:18.473,77326,236937,203258,744,0.2277942,3026,0.92648555
2023-10-26 13:45:18.473,77327,236926,203224,669,0.204831075,2871,0.879028425
2023-10-26 13:45:18.473,77328,236892,203202,1094,0.33495545,2718,0.83218365
2023-10-26 13:45:18.473,77329,236873,203198,1144,0.3502642,2586,0.79176855
2023-10-26 13:45:18.473,77330,236877,203201,723,0.221364525,2495,0.763906625
2023-10-26 13:45:18.503,77331,236902,203186,596,0.1824803,2453,0.751047275
2023-10-26 13:45:18.503,77332,236903,203192,928,0.2841304,2452,0.7507411
2023-10-26 13:45:18.503,77333,236919,203193,1025,0.313829375,2478,0.75870165
2023-10-26 13:45:18.503,77334,236892,203184,611,0.187072925,2511,0.768805425
2023-10-26 13:45:18.503,77335,236882,203162,589,0.180337075,2529,0.774316575
2023-10-26 13:45:18.503,77336,236904,203161,858,0.26269815,2516,0.7703363
2023-10-26 13:45:18.503,77337,236887,203151,910,0.27861925,2476,0.7580893
2023-10-26 13:45:18.533,77338,236879,203121,519,0.158904825,2415,0.739412625
2023-10-26 13:45:18.533,77339,236881,203100,428,0.1310429,2329,0.713081575
2023-10-26 13:45:18.533,77340,236835,203083,836,0.2559623,2205,0.675115875
2023-10-26 13:45:18.533,77341,236851,203085,994,0.30433795,2049,0.627352575
2023-10-26 13:45:18.533,77342,236815,203072,1027,0.314441725,1882,0.57622135
2023-10-26 13:45:18.533,77343,236834,203060,1446,0.44272905,1719,0.526314825
2023-10-26 13:45:18.533,77344,236814,203037,1825,0.558769375,1561,0.477939175
2023-10-26 13:45:18.533,77345,236777,203013,1879,0.575302825,1418,0.43415615
2023-10-26 13:45:18.533,77346,236779,203004,1394,0.42680795,1302,0.39863985
2023-10-26 13:45:18.563,77347,236773,203004,1179,0.360980325,1208,0.3698594
2023-10-26 13:45:18.563,77348,236753,202977,1530,0.46844775,1126,0.34475305
2023-10-26 13:45:18.563,77349,236751,202965,1962,0.60071535,1056,0.3233208
2023-10-26 13:45:18.563,77350,236731,202941,1776,0.5437668,1003,0.307093525
2023-10-26 13:45:18.563,77351,236699,202927,1555,0.476102125,960,0.293928
2023-10-26 13:45:18.563,77352,236662,202901,1903,0.582651025,919,0.281374825
2023-10-26 13:45:18.563,77353,236657,202893,1983,0.607145025,882,0.27004635
2023-10-26 13:45:18.603,77354,236652,202864,1567,0.479776225,851,0.260554925
2023-10-26 13:45:18.603,77355,236622,202858,1435,0.439361125,823,0.251982025
2023-10-26 13:45:18.603,77356,236589,202830,1803,0.552033525,790,0.24187825
2023-10-26 13:45:18.603,77357,236575,202818,1939,0.593673325,763,0.233611525
2023-10-26 13:45:18.603,77358,236558,202786,1490,0.45620075,754,0.23085595
2023-10-26 13:45:18.603,77359,236559,202783,1199,0.367103825,766,0.23453005
2023-10-26 13:45:18.633,77360,236557,202765,1464,0.4482402,792,0.2424906
2023-10-26 13:45:18.633,77361,236536,202771,1595,0.488349125,832,0.2547376
2023-10-26 13:45:18.633,77362,236544,202749,1170,0.35822475,887,0.271577225
2023-10-26 13:45:18.633,77363,236523,202746,909,0.278313075,952,0.2914786
2023-10-26 13:45:18.663,77364,236506,202745,1192,0.3649606,1017,0.311379975
2023-10-26 13:45:18.663,77365,236534,202737,1328,0.4066004,1089,0.333424575
2023-10-26 13:45:18.663,77366,236522,202708,912,0.2792316,1181,0.361592675
2023-10-26 13:45:18.663,77367,236486,202702,697,0.213403975,1285,0.393434875
2023-10-26 13:45:18.663,77368,236435,202686,1042,0.31903435,1384,0.4237462
2023-10-26 13:45:18.663,77369,236442,202673,1186,0.36312355,1471,0.450383425
2023-10-26 13:45:18.663,77370,236433,202664,761,0.232999175,1548,0.4739589
2023-10-26 13:45:18.693,77371,236430,202664,620,0.1898285,1609,0.492635575
2023-10-26 13:45:18.693,77372,236402,202645,1010,0.30923675,1647,0.504270225
2023-10-26 13:45:18.693,77373,236415,202639,1187,0.363429725,1673,0.512230775
2023-10-26 13:45:18.693,77374,236411,202629,816,0.2498388,1698,0.51988515
2023-10-26 13:45:18.693,77375,236403,202625,622,0.19044085,1718,0.52600865
2023-10-26 13:45:18.723,77376,236385,202598,946,0.28964155,1717,0.525702475
2023-10-26 13:45:18.723,77377,236363,202604,1104,0.3380172,1695,0.518966625
2023-10-26 13:45:18.723,77378,236332,202574,647,0.198095225,1665,0.509781375
2023-10-26 13:45:18.723,77379,236316,202551,452,0.1383911,1635,0.500596125
2023-10-26 13:45:18.753,77380,236319,202543,782,0.23942885,1597,0.488961475
2023-10-26 13:45:18.753,77381,236308,202537,915,0.280150125,1553,0.475489775
2023-10-26 13:45:18.753,77382,236283,202534,480,0.146964,1507,0.461405725
2023-10-26 13:45:18.753,77383,236287,202538,345,0.105630375,1454,0.44517845
2023-10-26 13:45:18.753,77384,236319,202504,743,0.227488025,1383,0.423440025
2023-10-26 13:45:18.753,77385,236276,202509,890,0.27249575,1303,0.398946025
2023-10-26 13:45:18.783,77386,236250,202494,424,0.1298182,1232,0.3772076
2023-10-26 13:45:18.783,77387,236263,202480,248,0.0759314,1175,0.359755625
2023-10-26 13:45:18.783,77388,236245,202460,630,0.19289025,1122,0.34352835
2023-10-26 13:45:18.783,77389,236253,202472,772,0.2363671,1073,0.328525775
2023-10-26 13:45:18.783,77390,236222,202461,384,0.1175712,1033,0.316278775
2023-10-26 13:45:18.783,77391,236244,202443,295,0.090321625,1001,0.306481175
2023-10-26 13:45:18.813,77392,236236,202427,726,0.22228305,967,0.296071225
2023-10-26 13:45:18.813,77393,236221,202418,949,0.290560075,934,0.28596745
2023-10-26 13:45:18.813,77394,236213,202418,669,0.204831075,914,0.27984395
2023-10-26 13:45:18.813,77395,236223,202407,724,0.2216707,904,0.2767822
2023-10-26 13:45:18.813,77396,236204,202380,1251,0.383024925,890,0.27249575
2023-10-26 13:45:18.813,77397,236166,202378,1705,0.522028375,869,0.266066075
2023-10-26 13:45:18.813,77398,236157,202361,1137,0.348120975,852,0.2608611
2023-10-26 13:45:18.853,77399,236152,202340,888,0.2718834,834,0.25534995
2023-10-26 13:45:18.853,77400,236141,202318,1271,0.389148425,806,0.24677705
2023-10-26 13:45:18.853,77401,236132,202319,1330,0.40721275,774,0.23697945
2023-10-26 13:45:18.853,77402,236100,202289,780,0.2388165,749,0.229325075
2023-10-26 13:45:18.853,77403,236110,202276,534,0.16349745,728,0.2228954
2023-10-26 13:45:18.853,77404,236064,202264,771,0.236060925,700,0.2143225
2023-10-26 13:45:18.853,77405,236033,202238,658,0.20146315,666,0.20391255
2023-10-26 13:45:18.883,77406,235977,202188,-55,-0.016839625,637,0.195033475
2023-10-26 13:45:18.883,77407,235945,202181,-394,-0.12063295,615,0.188297625
2023-10-26 13:45:18.883,77408,235913,202114,-214,-0.06552145,591,0.180949425
2023-10-26 13:45:18.883,77409,235799,202087,-258,-0.07899315,571,0.174825925
2023-10-26 13:45:18.883,77410,235762,202050,-872,-0.2669846,566,0.17329505
2023-10-26 13:45:18.883,77411,235727,202021,-1141,-0.349345675,574,0.17574445
2023-10-26 13:45:18.883,77412,235643,201974,-670,-0.20513725,585,0.179112375
2023-10-26 13:45:18.883,77413,235612,201942,-407,-0.124613225,605,0.185235875
2023-10-26 13:45:18.913,77414,235564,201909,-797,-0.244021475,647,0.198095225
2023-10-26 13:45:18.913,77415,235537,201892,-878,-0.26882165,706,0.21615955
2023-10-26 13:45:18.913,77416,235517,201872,-450,-0.13777875,766,0.23453005
2023-10-26 13:45:18.913,77417,235514,201852,-467,-0.142983725,826,0.25290055
2023-10-26 13:45:18.913,77418,235515,201845,-1137,-0.348120975,893,0.273414275
2023-10-26 13:45:18.913,77419,235532,201844,-1308,-0.4004769,957,0.293009475
2023-10-26 13:45:18.913,77420,235540,201866,-894,-0.27372045,1001,0.306481175
2023-10-26 13:45:18.943,77421,235544,201859,-695,-0.212791625,1024,0.3135232
2023-10-26 13:45:18.943,77422,235583,201866,-1047,-0.320565225,1028,0.3147479
2023-10-26 13:45:18.943,77423,235582,201849,-1229,-0.376289075,1006,0.30801205
2023-10-26 13:45:18.943,77424,235581,201838,-850,-0.26024875,945,0.289335375
2023-10-26 13:45:18.943,77425,235587,201849,-662,-0.20268785,847,0.259330225
2023-10-26 13:45:18.943,77426,235576,201829,-1129,-0.345671575,726,0.22228305
2023-10-26 13:45:18.973,77427,235593,201830,-1580,-0.4837565,584,0.1788062
2023-10-26 13:45:18.973,77428,235583,201806,-1326,-0.40598805,414,0.12675645
2023-10-26 13:45:18.973,77429,235572,201825,-1093,-0.334649275,229,0.070114075
2023-10-26 13:45:18.973,77430,235556,201799,-1715,-0.525090125,50,0.01530875
2023-10-26 13:45:18.973,77431,235582,201799,-2128,-0.6515404,-114,-0.03490395
2023-10-26 13:45:18.973,77432,235575,201796,-3055,-0.935364625,-267,-0.081748725
2023-10-26 13:45:18.973,77433,235591,201799,-6002,-1.83766235,-399,-0.122163825
2023-10-26 13:45:18.973,77434,235582,201804,-9394,-2.87620795,-501,-0.153393675
2023-10-26 13:45:19.003,77435,235614,201819,-9119,-2.792009825,-583,-0.178500025
2023-10-26 13:45:19.003,77436,235630,201808,-7637,-2.338258475,-658,-0.20146315
2023-10-26 13:45:19.003,77437,235615,201793,-6578,-2.01401915,-726,-0.22228305
2023-10-26 13:45:19.003,77438,235605,201791,-6356,-1.9460483,-773,-0.236673275
2023-10-26 13:45:19.003,77439,235615,201778,-5940,-1.8186795,-802,-0.24555235
2023-10-26 13:45:19.003,77440,235618,201793,-5194,-1.59027295,-828,-0.2535129
2023-10-26 13:45:19.033,77441,235624,201789,-4698,-1.43841015,-854,-0.26147345
2023-10-26 13:45:19.033,77442,235610,201777,-4829,-1.478519075,-871,-0.266678425
2023-10-26 13:45:19.033,77443,235645,201815,-4714,-1.44330895,-886,-0.27127105
2023-10-26 13:45:19.033,77444,235689,201816,-4083,-1.250112525,-916,-0.2804563
2023-10-26 13:45:19.033,77445,235734,201829,-3643,-1.115395525,-961,-0.294234175
2023-10-26 13:45:19.033,77446,235738,201833,-3830,-1.17265025,-1004,-0.3073997
2023-10-26 13:45:19.033,77447,235769,201832,-3921,-1.200512175,-1050,-0.32148375
2023-10-26 13:45:19.033,77448,235768,201826,-3384,-1.0360962,-1116,-0.3416913
2023-10-26 13:45:19.033,77449,235750,201832,-3037,-0.929853475,-1233,-0.377513775
2023-10-26 13:45:19.063,77450,235745,201807,-3361,-1.029054175,-1447,-0.443035225
2023-10-26 13:45:19.063,77451,235771,201817,-3496,-1.0703878,-3332,-1.0201751
2023-10-26 13:45:19.063,77452,235756,201812,-3097,-0.948223975,-5446,-1.66742905
2023-10-26 13:45:19.063,77453,235767,201805,-2879,-0.881477825,-6570,-2.01156975
2023-10-26 13:45:19.063,77454,235766,201807,-3124,-0.9564907,-7081,-2.168025175
2023-10-26 13:45:19.063,77455,235768,201813,-2761,-0.845349175,-7339,-2.247018325
2023-10-26 13:45:19.063,77456,235797,201820,-1964,-0.6013277,-7350,-2.25038625
2023-10-26 13:45:19.063,77457,235809,201823,-1476,-0.4519143,-6950,-2.12791625
2023-10-26 13:45:19.063,77458,235818,201818,-1738,-0.53213215,-6211,-1.901652925
2023-10-26 13:45:19.103,77459,235835,201841,-1889,-0.578364575,-5492,-1.6815131
2023-10-26 13:45:19.103,77460,235835,201836,-1559,-0.477326825,-5145,-1.575270375
2023-10-26 13:45:19.103,77461,235810,201822,-1406,-0.43048205,-4954,-1.51679095
2023-10-26 13:45:19.103,77462,235832,201814,-1805,-0.552645875,-4558,-1.39554565
2023-10-26 13:45:19.103,77463,235844,201824,-1969,-0.602858575,-4455,-1.364009625
2023-10-26 13:45:19.133,77464,235828,201817,-1557,-0.476714475,-4555,-1.394627125
2023-10-26 13:45:19.133,77465,235849,201829,-1291,-0.395271925,-4528,-1.3863604
2023-10-26 13:45:19.133,77466,235837,201817,-1635,-0.500596125,-4316,-1.3214513
2023-10-26 13:45:19.133,77467,235844,201822,-1781,-0.545297675,-4144,-1.2687892
2023-10-26 13:45:19.163,77468,235843,201817,-1308,-0.4004769,-4221,-1.292364675
2023-10-26 13:45:19.163,77469,235881,201819,-981,-0.300357675,-3915,-1.198675125
2023-10-26 13:45:19.163,77470,235864,201816,-1329,-0.406906575,-3691,-1.130091925
2023-10-26 13:45:19.163,77471,235878,201815,-1520,-0.465386,-3554,-1.08814595
2023-10-26 13:45:19.163,77472,235878,201837,-1157,-0.354244475,-3478,-1.06487665
2023-10-26 13:45:19.163,77473,235912,201830,-939,-0.287498325,-3407,-1.043138225
2023-10-26 13:45:19.193,77474,235919,201839,-1364,-0.4176227,-3290,-1.00731575
2023-10-26 13:45:19.193,77475,235926,201855,-1536,-0.4702848,-3114,-0.95342895
2023-10-26 13:45:19.193,77476,235919,201832,-1154,-0.35332595,-2908,-0.8903569
2023-10-26 13:45:19.193,77477,235941,201838,-977,-0.299132975,-2701,-0.826978675
2023-10-26 13:45:19.193,77478,235931,201835,-1404,-0.4298697,-2512,-0.7691116
2023-10-26 13:45:19.223,77479,235922,201824,-1642,-0.50273935,-2353,-0.720429775
2023-10-26 13:45:19.223,77480,235918,201817,-1320,-0.404151,-2227,-0.681851725
2023-10-26 13:45:19.223,77481,235907,201807,-1139,-0.348733325,-2116,-0.6478663
2023-10-26 13:45:19.253,77482,235899,201797,-1525,-0.466916875,-1997,-0.611431475
2023-10-26 13:45:19.253,77483,235882,201796,-1748,-0.5351939,-1874,-0.57377195
2023-10-26 13:45:19.253,77484,235865,201799,-1391,-0.425889425,-1765,-0.540398875
2023-10-26 13:45:19.253,77485,235874,201787,-1203,-0.368328525,-1680,-0.514374
2023-10-26 13:45:19.253,77486,235866,201765,-1610,-0.49294175,-1608,-0.4923294
2023-10-26 13:45:19.253,77487,235859,201769,-1844,-0.5645867,-1551,-0.474877425
2023-10-26 13:45:19.283,77488,235876,201767,-1504,-0.4604872,-1517,-0.464467475
2023-10-26 13:45:19.283,77489,235862,201765,-1300,-0.3980275,-1497,-0.458343975
2023-10-26 13:45:19.283,77490,235855,201757,-1669,-0.511006075,-1474,-0.45130195
2023-10-26 13:45:19.283,77491,235856,201755,-1913,-0.585712775,-1445,-0.442422875
2023-10-26 13:45:19.283,77492,235828,201718,-2007,-0.614493225,-1417,-0.433849975
2023-10-26 13:45:19.283,77493,235823,201711,-3335,-1.021093625,-1388,-0.4249709
2023-10-26 13:45:19.283,77494,235789,201686,-5297,-1.621808975,-1347,-0.412417725
2023-10-26 13:45:19.283,77495,235771,201698,-6362,-1.94788535,-1301,-0.398333675
2023-10-26 13:45:19.283,77496,235737,201670,-7319,-2.240894825,-1269,-0.388536075
2023-10-26 13:45:19.313,77497,235735,201658,-7588,-2.3232559,-1258,-0.38516815
2023-10-26 13:45:19.313,77498,235737,201652,-7980,-2.4432765,-1261,-0.386086675
2023-10-26 13:45:19.313,77499,235726,201641,-8263,-2.529924025,-1274,-0.39006695
2023-10-26 13:45:19.313,77500,235740,201640,-6930,-2.12179275,-1303,-0.398946025
2023-10-26 13:45:19.313,77501,235706,201628,-5721,-1.751627175,-1339,-0.409968325
2023-10-26 13:45:19.313,77502,235681,201631,-6007,-1.839193225,-1363,-0.417316525
2023-10-26 13:45:19.313,77503,235673,201611,-6176,-1.8909368,-1374,-0.42068445
2023-10-26 13:45:19.313,77504,235682,201582,-5138,-1.57312715,-1389,-0.425277075
2023-10-26 13:45:19.353,77505,235650,201607,-3835,-1.174181125,-1410,-0.43170675
2023-10-26 13:45:19.353,77506,235657,201603,-3483,-1.066407525,-1432,-0.4384426
2023-10-26 13:45:19.353,77507,235648,201577,-3977,-1.217657975,-1457,-0.446096975
2023-10-26 13:45:19.353,77508,235619,201568,-5123,-1.568534525,-1493,-0.457119275
2023-10-26 13:45:19.353,77509,235634,201584,-5911,-1.809800425,-1548,-0.4739589
2023-10-26 13:45:19.353,77510,235632,201586,-6477,-1.983095475,-1633,-0.499983775
2023-10-26 13:45:19.383,77511,235633,201589,-6713,-2.055352775,-1777,-0.544072975
2023-10-26 13:45:19.383,77512,235611,201559,-6221,-1.904714675,-2008,-0.6147994
2023-10-26 13:45:19.383,77513,235629,201575,-5746,-1.75928155,-3666,-1.12243755
2023-10-26 13:45:19.383,77514,235585,201541,-6035,-1.847766125,-5127,-1.569759225
2023-10-26 13:45:19.383,77515,235578,201546,-5968,-1.8272524,-6329,-1.937781575
2023-10-26 13:45:19.383,77516,235569,201523,-5402,-1.65395735,-7251,-2.220074925
2023-10-26 13:45:19.383,77517,235524,201537,-4926,-1.50821805,-7614,-2.33121645
2023-10-26 13:45:19.413,77518,235523,201506,-5004,-1.5320997,-7410,-2.26875675
2023-10-26 13:45:19.413,77519,235514,201505,-4995,-1.529344125,-6992,-2.1407756
2023-10-26 13:45:19.413,77520,235494,201486,-4489,-1.374419575,-6539,-2.002078325
2023-10-26 13:45:19.413,77521,235489,201479,-4137,-1.266645975,-6054,-1.85358345
2023-10-26 13:45:19.413,77522,235475,201466,-4372,-1.3385971,-5748,-1.7598939
2023-10-26 13:45:19.413,77523,235458,201455,-4379,-1.340740325,-5454,-1.66987845
2023-10-26 13:45:19.413,77524,235449,201450,-3863,-1.182754025,-5030,-1.54006025
2023-10-26 13:45:19.443,77525,235470,201455,-3485,-1.067019875,-4953,-1.516484775
2023-10-26 13:45:19.443,77526,235472,201446,-3710,-1.13590925,-5183,-1.586905025
2023-10-26 13:45:19.443,77527,235477,201468,-3792,-1.1610156,-5470,-1.67477725
2023-10-26 13:45:19.443,77528,235503,201461,-3326,-1.01833805,-5612,-1.7182541
2023-10-26 13:45:19.443,77529,235488,201460,-2988,-0.9148509,-5489,-1.680594575
2023-10-26 13:45:19.473,77530,235505,201457,-3260,-0.9981305,-5273,-1.614460775
2023-10-26 13:45:19.473,77531,235500,201455,-3264,-0.9993552,-5231,-1.601601425
2023-10-26 13:45:19.473,77532,235496,201464,-2550,-0.78074625,-5271,-1.613848425
2023-10-26 13:45:19.473,77533,235498,201452,-2343,-0.717368025,-5383,-1.648140025
2023-10-26 13:45:19.503,77534,235509,201428,-2743,-0.839838025,-5525,-1.691616875
2023-10-26 13:45:19.503,77535,235503,201449,-2828,-0.8658629,-5649,-1.729582575
2023-10-26 13:45:19.503,77536,235510,201431,-2375,-0.727165625,-5716,-1.7500963
2023-10-26 13:45:19.533,77537,235498,201438,-2003,-0.613268525,-5708,-1.7476469
2023-10-26 13:45:19.533,77538,235480,201419,-2381,-0.729002675,-5633,-1.724683775
2023-10-26 13:45:19.533,77539,235502,201408,-2644,-0.8095267,-5518,-1.68947365
2023-10-26 13:45:19.533,77540,235482,201404,-2255,-0.690424625,-5385,-1.648752375
2023-10-26 13:45:19.533,77541,235489,201430,-1934,-0.59214245,-5231,-1.601601425
2023-10-26 13:45:19.563,77542,235489,201393,-2397,-0.733901475,-5037,-1.542203475
2023-10-26 13:45:19.563,77543,235475,201403,-2838,-0.86892465,-4808,-1.4720894
2023-10-26 13:45:19.563,77544,235468,201387,-2568,-0.7862574,-4574,-1.40044445
2023-10-26 13:45:19.563,77545,235487,201408,-2312,-0.7078766,-4360,-1.334923
2023-10-26 13:45:19.563,77546,235489,201381,-2509,-0.768193075,-4172,-1.2773621
2023-10-26 13:45:19.603,77547,235459,201382,-2578,-0.78931915,-4016,-1.2295988
2023-10-26 13:45:19.603,77548,235458,201380,-2022,-0.61908585,-3887,-1.190102225
2023-10-26 13:45:19.603,77549,235445,201369,-1294,-0.39619045,-3763,-1.152136525
2023-10-26 13:45:19.603,77550,235441,201346,-1258,-0.38516815,-3623,-1.109272025
2023-10-26 13:45:19.603,77551,235446,201369,-1388,-0.4249709,-3467,-1.061508725
2023-10-26 13:45:19.603,77552,235430,201347,-1043,-0.319340525,-3316,-1.0152763
2023-10-26 13:45:19.603,77553,235436,201350,-733,-0.224426275,-3177,-0.972717975
2023-10-26 13:45:19.633,77554,235451,201348,-1006,-0.30801205,-3044,-0.9319967
2023-10-26 13:45:19.633,77555,235450,201359,-1174,-0.35944945,-2920,-0.894031
2023-10-26 13:45:19.633,77556,235493,201353,-862,-0.26392285,-2815,-0.861882625
2023-10-26 13:45:19.633,77557,235467,201373,-616,-0.1886038,-2724,-0.8340207
2023-10-26 13:45:19.633,77558,235485,201343,-929,-0.284436575,-2631,-0.805546425
2023-10-26 13:45:19.633,77559,235509,201375,-1103,-0.337711025,-2541,-0.777990675
2023-10-26 13:45:19.633,77560,235490,201364,-726,-0.22228305,-2478,-0.75870165
2023-10-26 13:45:19.633,77561,235516,201364,-391,-0.119714425,-2444,-0.7482917
2023-10-26 13:45:19.633,77562,235512,201357,-495,-0.151556625,-2420,-0.7409435
2023-10-26 13:45:19.663,77563,235494,201357,-277,-0.084810475,-2401,-0.735126175
2023-10-26 13:45:19.663,77564,235488,201356,653,0.199932275,-2394,-0.73298295
2023-10-26 13:45:19.663,77565,235534,201358,1190,0.36434825,-2391,-0.732064425
2023-10-26 13:45:19.663,77566,235502,201367,636,0.1947273,-2371,-0.725940925
2023-10-26 13:45:19.663,77567,235502,201357,150,0.04592625,-2325,-0.711856875
2023-10-26 13:45:19.663,77568,235510,201337,323,0.098894525,-2261,-0.692261675
2023-10-26 13:45:19.663,77569,235512,201361,591,0.180949425,-2184,-0.6686862
2023-10-26 13:45:19.663,77570,235498,201343,282,0.08634135,-2080,-0.636844
2023-10-26 13:45:19.693,77571,235513,201343,48,0.0146964,-1948,-0.5964289
2023-10-26 13:45:19.693,77572,235506,201358,352,0.1077736,-1801,-0.551421175
2023-10-26 13:45:19.693,77573,235513,201340,664,0.2033002,-1651,-0.505494925
2023-10-26 13:45:19.693,77574,235509,201341,326,0.09981305,-1498,-0.45865015
2023-10-26 13:45:19.693,77575,235507,201343,-4,-0.0012247,-1350,-0.41333625
2023-10-26 13:45:19.693,77576,235516,201348,46,0.01408405,-1221,-0.373839675
2023-10-26 13:45:19.723,77577,235549,201356,-318,-0.09736365,-1115,-0.341385125
2023-10-26 13:45:19.723,77578,235541,201356,-585,-0.179112375,-1021,-0.312604675
2023-10-26 13:45:19.723,77579,235548,201357,-744,-0.2277942,-930,-0.28474275
2023-10-26 13:45:19.723,77580,235539,201351,-447,-0.136860225,-842,-0.25779935
2023-10-26 13:45:19.753,77581,235547,201345,-98,-0.03000515,-749,-0.229325075
2023-10-26 13:45:19.753,77582,235564,201339,-175,-0.053580625,-638,-0.19533965
2023-10-26 13:45:19.753,77583,235564,201349,-202,-0.06184735,-517,-0.158292475
2023-10-26 13:45:19.753,77584,235551,201349,-73,-0.022350775,-399,-0.122163825
2023-10-26 13:45:19.753,77585,235548,201350,116,0.0355163,-282,-0.08634135
2023-10-26 13:45:19.753,77586,235552,201331,-127,-0.038884225,-152,-0.0465386
2023-10-26 13:45:19.753,77587,235587,201354,-408,-0.1249194,-11,-0.003367925
2023-10-26 13:45:19.783,77588,235563,201349,-285,-0.087259875,119,0.036434825
2023-10-26 13:45:19.783,77589,235570,201358,-94,-0.02878045,227,0.069501725
2023-10-26 13:45:19.783,77590,235595,201346,-387,-0.118489725,316,0.0967513
2023-10-26 13:45:19.783,77591,235614,201363,-714,-0.21860895,380,0.1163465
2023-10-26 13:45:19.783,77592,235595,201363,-594,-0.18186795,404,0.1236947
2023-10-26 13:45:19.783,77593,235587,201362,-409,-0.125225575,390,0.11940825
2023-10-26 13:45:19.783,77594,235616,201327,-642,-0.19656435,354,0.10838595
2023-10-26 13:45:19.783,77595,235602,201352,-940,-0.2878045,305,0.093383375
2023-10-26 13:45:19.783,77596,235603,201339,-809,-0.247695575,239,0.073175825
2023-10-26 13:45:19.783,77597,235602,201335,-565,-0.172988875,152,0.0465386
2023-10-26 13:45:19.813,77598,235593,201312,-746,-0.22840655,59,0.018064325
2023-10-26 13:45:19.813,77599,235571,201315,-1011,-0.309542925,-27,-0.008266725
2023-10-26 13:45:19.813,77600,235539,201330,-866,-0.26514755,-103,-0.031536025
2023-10-26 13:45:19.813,77601,235581,201308,-602,-0.18431735,-165,-0.050518875
2023-10-26 13:45:19.813,77602,235557,201311,-743,-0.227488025,-202,-0.06184735
2023-10-26 13:45:19.813,77603,235570,201322,-978,-0.29943915,-218,-0.06674615
2023-10-26 13:45:19.813,77604,235590,201309,-826,-0.25290055,-228,-0.0698079
2023-10-26 13:45:19.813,77605,235586,201325,-586,-0.17941855,-238,-0.07286965
2023-10-26 13:45:19.813,77606,235588,201299,-795,-0.243409125,-243,-0.074400525
2023-10-26 13:45:19.813,77607,235578,201327,-1088,-0.3331184,-244,-0.0747067
2023-10-26 13:45:19.853,77608,235582,201304,-943,-0.288723025,-250,-0.07654375
2023-10-26 13:45:19.853,77609,235577,201299,-663,-0.202994025,-261,-0.079911675
2023-10-26 13:45:19.853,77610,235563,201293,-845,-0.258717875,-270,-0.08266725
2023-10-26 13:45:19.853,77611,235596,201290,-1117,-0.341997475,-280,-0.085729
2023-10-26 13:45:19.853,77612,235551,201300,-972,-0.2976021,-305,-0.093383375
2023-10-26 13:45:19.853,77613,235562,201302,-727,-0.222589225,-352,-0.1077736
2023-10-26 13:45:19.853,77614,235543,201289,-919,-0.281374825,-413,-0.126450275
2023-10-26 13:45:19.853,77615,235584,201306,-1279,-0.391597825,-479,-0.146657825
2023-10-26 13:45:19.883,77616,235577,201294,-1506,-0.46109955,-550,-0.16839625
2023-10-26 13:45:19.883,77617,235595,201299,-1488,-0.4555884,-619,-0.189522325
2023-10-26 13:45:19.883,77618,235568,201287,-1626,-0.49784055,-673,-0.206055775
2023-10-26 13:45:19.883,77619,235588,201308,-1796,-0.5498903,-706,-0.21615955
2023-10-26 13:45:19.913,77620,235602,201292,-1536,-0.4702848,-729,-0.223201575
2023-10-26 13:45:19.913,77621,235583,201308,-1228,-0.3759829,-750,-0.22963125
2023-10-26 13:45:19.913,77622,235583,201281,-1378,-0.42190915,-767,-0.234836225
2023-10-26 13:45:19.913,77623,235587,201285,-1639,-0.501820825,-778,-0.23820415
2023-10-26 13:45:19.913,77624,235578,201269,-1505,-0.460793375,-791,-0.242184425
2023-10-26 13:45:19.913,77625,235565,201278,-1228,-0.3759829,-809,-0.247695575
2023-10-26 13:45:19.913,77626,235543,201263,-1350,-0.41333625,-821,-0.251369675
2023-10-26 13:45:19.943,77627,235594,201277,-1556,-0.4764083,-825,-0.252594375
2023-10-26 13:45:19.943,77628,235575,201268,-1356,-0.4151733,-830,-0.25412525
2023-10-26 13:45:19.943,77629,235586,201279,-995,-0.304644125,-839,-0.256880825
2023-10-26 13:45:19.943,77630,235601,201293,-1114,-0.34107895,-849,-0.259942575
2023-10-26 13:45:19.943,77631,235604,201294,-1387,-0.424664725,-856,-0.2620858
2023-10-26 13:45:19.973,77632,235633,201297,-1237,-0.378738475,-872,-0.2669846
2023-10-26 13:45:19.973,77633,235627,201304,-968,-0.2963774,-906,-0.27739455
2023-10-26 13:45:19.973,77634,235636,201312,-1129,-0.345671575,-953,-0.291784775
2023-10-26 13:45:20.003,77635,235656,201301,-1411,-0.432012925,-1007,-0.308318225
2023-10-26 13:45:20.003,77636,235618,201301,-1298,-0.39741515,-1069,-0.327301075
2023-10-26 13:45:20.003,77637,235651,201301,-1050,-0.32148375,-1136,-0.3478148
2023-10-26 13:45:20.003,77638,235640,201304,-1187,-0.363429725,-1201,-0.367716175
2023-10-26 13:45:20.003,77639,235643,201286,-1470,-0.45007725,-1257,-0.384861975
2023-10-26 13:45:20.003,77640,235654,201299,-1362,-0.41701035,-1312,-0.4017016
2023-10-26 13:45:20.033,77641,235651,201303,-1167,-0.357306225,-1368,-0.4188474
2023-10-26 13:45:20.033,77642,235649,201281,-1365,-0.417928875,-1417,-0.433849975
2023-10-26 13:45:20.033,77643,235610,201290,-1610,-0.49294175,-1452,-0.4445661
2023-10-26 13:45:20.033,77644,235624,201285,-1465,-0.448546375,-1474,-0.45130195
2023-10-26 13:45:20.033,77645,235618,201277,-1186,-0.36312355,-1482,-0.45375135
2023-10-26 13:45:20.033,77646,235618,201282,-1336,-0.4090498,-1473,-0.450995775
2023-10-26 13:45:20.063,77647,235614,201262,-1583,-0.484675025,-1266,-0.38761755
2023-10-26 13:45:20.063,77648,235594,201267,-1415,-0.433237625,-1266,-0.38761755
2023-10-26 13:45:20.063,77649,235621,201295,-1130,-0.34597775,-1265,-0.387311375
2023-10-26 13:45:20.063,77650,235629,201280,-1201,-0.367716175,-1256,-0.3845558
2023-10-26 13:45:20.063,77651,235628,201293,-1315,-0.402620125,-1243,-0.380575525
2023-10-26 13:45:20.103,77652,235633,201275,-1082,-0.33128135,-1233,-0.377513775
2023-10-26 13:45:20.103,77653,235664,201300,-833,-0.255043775,-1227,-0.375676725
2023-10-26 13:45:20.103,77654,235668,201292,-993,-0.304031775,-1221,-0.373839675
2023-10-26 13:45:20.103,77655,235665,201304,-1303,-0.398946025,-1217,-0.372614975
2023-10-26 13:45:20.103,77656,235659,201301,-1191,-0.364654425,-1218,-0.37292115
2023-10-26 13:45:20.103,77657,235633,201289,-961,-0.294234175,-1223,-0.374452025
2023-10-26 13:45:20.133,77658,235617,201290,-1167,-0.357306225,-1226,-0.37537055
2023-10-26 13:45:20.133,77659,235619,201270,-1531,-0.468753925,-1229,-0.376289075
2023-10-26 13:45:20.133,77660,235610,201269,-1493,-0.457119275,-1240,-0.379657
2023-10-26 13:45:20.133,77661,235566,201276,-1395,-0.427114125,-1262,-0.38639285
2023-10-26 13:45:20.133,77662,235598,201256,-1803,-0.552033525,-1287,-0.394047225
2023-10-26 13:45:20.133,77663,235587,201269,-2340,-0.7164495,-1307,-0.400170725
2023-10-26 13:45:20.133,77664,235596,201264,-2341,-0.716755675,-1328,-0.4066004
2023-10-26 13:45:20.133,77665,235599,201280,-2183,-0.668380025,-1349,-0.413030075
2023-10-26 13:45:20.163,77666,235587,201267,-2344,-0.7176742,-1363,-0.417316525
2023-10-26 13:45:20.163,77667,235627,201305,-2734,-0.83708245,-1366,-0.41823505
2023-10-26 13:45:20.163,77668,235653,201311,-2782,-0.85177885,-1362,-0.41701035
2023-10-26 13:45:20.163,77669,235659,201328,-2649,-0.811057575,-1355,-0.414867125
2023-10-26 13:45:20.163,77670,235680,201325,-2855,-0.874129625,-1337,-0.409355975
2023-10-26 13:45:20.163,77671,235660,201320,-3172,-0.9711871,-1308,-0.4004769
2023-10-26 13:45:20.163,77672,235672,201318,-3267,-1.000273725,-1277,-0.390985475
2023-10-26 13:45:20.163,77673,235686,201319,-3158,-0.96690065,-1251,-0.383024925
2023-10-26 13:45:20.193,77674,235702,201320,-3307,-1.012520725,-1222,-0.37414585
2023-10-26 13:45:20.193,77675,235688,201336,-3575,-1.094575625,-1192,-0.3649606
2023-10-26 13:45:20.193,77676,235695,201321,-3466,-1.06120255,-1171,-0.358530925
2023-10-26 13:45:20.193,77677,235699,201321,-3172,-0.9711871,-1166,-0.35700005
2023-10-26 13:45:20.193,77678,235693,201313,-3419,-1.046812325,-1174,-0.35944945
2023-10-26 13:45:20.193,77679,235696,201333,-3676,-1.1254993,-1197,-0.366491475
2023-10-26 13:45:20.223,77680,235704,201334,-3602,-1.10284235,-1246,-0.38149405
2023-10-26 13:45:20.223,77681,235744,201322,-3301,-1.010683675,-1324,-0.4053757
2023-10-26 13:45:20.223,77682,235731,201317,-3334,-1.02078745,-1420,-0.4347685
2023-10-26 13:45:20.223,77683,235712,201319,-3673,-1.124580775,-1525,-0.466916875
2023-10-26 13:45:20.223,77684,235721,201303,-3622,-1.10896585,-1646,-0.50396405
2023-10-26 13:45:20.253,77685,235696,201299,-3291,-1.007621925,-1785,-0.546522375
2023-10-26 13:45:20.253,77686,235718,201295,-3370,-1.03180975,-1931,-0.591223925
2023-10-26 13:45:20.253,77687,235715,201312,-3555,-1.088452125,-2073,-0.634700775
2023-10-26 13:45:20.253,77688,235729,201309,-3368,-1.0311974,-2216,-0.6784838
2023-10-26 13:45:20.253,77689,235743,201305,-2982,-0.91301385,-2361,-0.722879175
2023-10-26 13:45:20.253,77690,235727,201315,-3000,-0.918525,-2502,-0.76604985
2023-10-26 13:45:20.283,77691,235754,201332,-3179,-0.973330325,-2632,-0.8058526
2023-10-26 13:45:20.283,77692,235757,201335,-2994,-0.91668795,-2756,-0.8438183
2023-10-26 13:45:20.283,77693,235784,201345,-2592,-0.7936056,-2875,-0.880253125
2023-10-26 13:45:20.283,77694,235781,201334,-2495,-0.763906625,-2984,-0.9136262
2023-10-26 13:45:20.283,77695,235794,201352,-2655,-0.812894625,-3076,-0.9417943
2023-10-26 13:45:20.283,77696,235799,201341,-2460,-0.7531905,-3157,-0.966594475
2023-10-26 13:45:20.313,77697,235806,201350,-2129,-0.651846575,-3231,-0.989251425
2023-10-26 13:45:20.313,77698,235823,201345,-2148,-0.6576639,-3295,-1.008846625
2023-10-26 13:45:20.313,77699,235828,201360,-2305,-0.705733375,-3345,-1.024155375
2023-10-26 13:45:20.313,77700,235813,201352,-2197,-0.672666475,-3389,-1.037627075
2023-10-26 13:45:20.313,77701,235834,201343,-1955,-0.598572125,-3430,-1.05018025
2023-10-26 13:45:20.353,77702,235845,201348,-2115,-0.647560125,-3460,-1.0593655
2023-10-26 13:45:20.353,77703,235855,201357,-2562,-0.78442035,-3473,-1.063345775
2023-10-26 13:45:20.353,77704,235830,201352,-2638,-0.80768965,-3478,-1.06487665
2023-10-26 13:45:20.353,77705,235845,201360,-2338,-0.71583715,-3478,-1.06487665
2023-10-26 13:45:20.353,77706,235848,201353,-2284,-0.6993037,-3467,-1.061508725
2023-10-26 13:45:20.353,77707,235871,201356,-2421,-0.741249675,-3443,-1.054160525
2023-10-26 13:45:20.383,77708,235877,201361,-2212,-0.6772591,-3411,-1.044362925
2023-10-26 13:45:20.383,77709,235882,201370,-1809,-0.553870575,-3377,-1.033952975
2023-10-26 13:45:20.383,77710,235884,201376,-1793,-0.548971775,-3333,-1.020481275
2023-10-26 13:45:20.383,77711,235909,201367,-1974,-0.60438945,-3270,-1.00119225
2023-10-26 13:45:20.383,77712,235887,201370,-1822,-0.55785085,-3194,-0.97792295
2023-10-26 13:45:20.383,77713,235873,201355,-1469,-0.449771075,-3109,-0.951898075
2023-10-26 13:45:20.413,77714,235898,201375,-1502,-0.45987485,-3016,-0.9234238
2023-10-26 13:45:20.413,77715,235892,201381,-1702,-0.52110985,-2912,-0.8915816
2023-10-26 13:45:20.413,77716,235905,201366,-1542,-0.47212185,-2807,-0.859433225
2023-10-26 13:45:20.413,77717,235909,201386,-1211,-0.370777925,-2706,-0.82850955
2023-10-26 13:45:20.413,77718,235915,201372,-1251,-0.383024925,-2607,-0.798198225
2023-10-26 13:45:20.413,77719,235894,201369,-1457,-0.446096975,-2511,-0.768805425
2023-10-26 13:45:20.413,77720,235897,201366,-1338,-0.40966215,-2429,-0.743699075
2023-10-26 13:45:20.413,77721,235895,201345,-1038,-0.31780965,-2372,-0.7262471
2023-10-26 13:45:20.443,77722,235892,201354,-1105,-0.338323375,-2333,-0.714306275
2023-10-26 13:45:20.443,77723,235890,201347,-1325,-0.405681875,-2306,-0.70603955
2023-10-26 13:45:20.443,77724,235879,201348,-1230,-0.37659525,-2289,-0.700834575
2023-10-26 13:45:20.443,77725,235908,201359,-948,-0.2902539,-2282,-0.69869135
2023-10-26 13:45:20.443,77726,235899,201364,-997,-0.305256475,-2276,-0.6968543
2023-10-26 13:45:20.443,77727,235916,201382,-1223,-0.374452025,-2262,-0.69256785
2023-10-26 13:45:20.443,77728,235927,201363,-1150,-0.35210125,-2244,-0.6870567
2023-10-26 13:45:20.473,77729,235926,201363,-889,-0.272189575,-2223,-0.680627025
2023-10-26 13:45:20.473,77730,235924,201363,-980,-0.3000515,-2190,-0.67052325
2023-10-26 13:45:20.473,77731,235901,201371,-1228,-0.3759829,-2137,-0.654295975
2023-10-26 13:45:20.473,77732,235914,201349,-1128,-0.3453654,-2070,-0.63378225
2023-10-26 13:45:20.503,77733,235921,201367,-890,-0.27249575,-1996,-0.6111253
2023-10-26 13:45:20.503,77734,235934,201355,-968,-0.2963774,-1915,-0.586325125
2023-10-26 13:45:20.503,77735,235944,201364,-1185,-0.362817375,-1826,-0.55907555
2023-10-26 13:45:20.503,77736,235959,201356,-1111,-0.340160425,-1737,-0.531825975
2023-10-26 13:45:20.533,77737,235964,201387,-869,-0.266066075,-1655,-0.506719625
2023-10-26 13:45:20.533,77738,235994,201413,-922,-0.28229335,-1577,-0.482837975
2023-10-26 13:45:20.533,77739,236026,201421,-1192,-0.3649606,-1502,-0.45987485
2023-10-26 13:45:20.533,77740,236042,201417,-1097,-0.335873975,-1436,-0.4396673
2023-10-26 13:45:20.533,77741,236062,201432,-818,-0.25045115,-1386,-0.42435855
2023-10-26 13:45:20.533,77742,236071,201450,-870,-0.26637225,-1343,-0.411193025
2023-10-26 13:45:20.563,77743,236112,201462,-1175,-0.359755625,-1300,-0.3980275
2023-10-26 13:45:20.563,77744,236119,201460,-1166,-0.35700005,-1260,-0.3857805
2023-10-26 13:45:20.563,77745,236139,201479,-871,-0.266678425,-1226,-0.37537055
2023-10-26 13:45:20.563,77746,236144,201472,-904,-0.2767822,-1194,-0.36557295
2023-10-26 13:45:20.563,77747,236152,201464,-1214,-0.37169645,-1160,-0.355163
2023-10-26 13:45:20.563,77748,236158,201472,-1331,-0.407518925,-1132,-0.3465901
2023-10-26 13:45:20.603,77749,236156,201474,-1144,-0.3502642,-1115,-0.341385125
2023-10-26 13:45:20.603,77750,236148,201463,-1227,-0.375676725,-1102,-0.33740485
2023-10-26 13:45:20.603,77751,236159,201456,-1523,-0.466304525,-1088,-0.3331184
2023-10-26 13:45:20.603,77752,236119,201433,-1592,-0.4874306,-1076,-0.3294443
2023-10-26 13:45:20.603,77753,236110,201445,-1391,-0.425889425,-1070,-0.32760725
2023-10-26 13:45:20.603,77754,236106,201425,-1430,-0.43783025,-1064,-0.3257702
2023-10-26 13:45:20.603,77755,236088,201419,-1673,-0.512230775,-1054,-0.32270845
2023-10-26 13:45:20.633,77756,236071,201390,-1609,-0.492635575,-1045,-0.319952875
2023-10-26 13:45:20.633,77757,236077,201388,-1301,-0.398333675,-1042,-0.31903435
2023-10-26 13:45:20.633,77758,236081,201376,-1297,-0.397108975,-1039,-0.318115825
2023-10-26 13:45:20.633,77759,236051,201378,-1506,-0.46109955,-1031,-0.315666425
2023-10-26 13:45:20.633,77760,236064,201389,-1415,-0.433237625,-1025,-0.313829375
2023-10-26 13:45:20.633,77761,236054,201367,-1266,-0.38761755,-1025,-0.313829375
2023-10-26 13:45:20.633,77762,236067,201373,-1393,-0.426501775,-1025,-0.313829375
2023-10-26 13:45:20.663,77763,236040,201373,-1665,-0.509781375,-1020,-0.3122985
2023-10-26 13:45:20.663,77764,236085,201358,-1676,-0.5131493,-1016,-0.3110738
2023-10-26 13:45:20.663,77765,236073,201376,-1565,-0.479163875,-1023,-0.313217025
2023-10-26 13:45:20.663,77766,236055,201360,-1691,-0.517741925,-1036,-0.3171973
2023-10-26 13:45:20.663,77767,236078,201345,-1863,-0.570404025,-1050,-0.32148375
2023-10-26 13:45:20.693,77768,236057,201359,-1691,-0.517741925,-1072,-0.3282196
2023-10-26 13:45:20.693,77769,236061,201362,-1389,-0.425277075,-1107,-0.338935725
2023-10-26 13:45:20.693,77770,236059,201366,-1380,-0.4225215,-1150,-0.35210125
2023-10-26 13:45:20.693,77771,236066,201344,-1558,-0.47702065,-1193,-0.365266775
2023-10-26 13:45:20.693,77772,236086,201353,-1433,-0.438748775,-1238,-0.37904465
2023-10-26 13:45:20.693,77773,236032,201356,-1129,-0.345671575,-1287,-0.394047225
2023-10-26 13:45:20.693,77774,236086,201350,-1119,-0.342609825,-1335,-0.408743625
2023-10-26 13:45:20.723,77775,236072,201334,-1320,-0.404151,-1374,-0.42068445
2023-10-26 13:45:20.723,77776,236076,201332,-1293,-0.395884275,-1404,-0.4298697
2023-10-26 13:45:20.723,77777,236079,201338,-1076,-0.3294443,-1430,-0.43783025
2023-10-26 13:45:20.723,77778,236087,201342,-1042,-0.31903435,-1448,-0.4433414
2023-10-26 13:45:20.723,77779,236053,201336,-1251,-0.383024925,-1457,-0.446096975
2023-10-26 13:45:20.723,77780,236076,201319,-1231,-0.376901425,-1461,-0.447321675
2023-10-26 13:45:20.753,77781,236065,201344,-958,-0.29331565,-1466,-0.44885255
2023-10-26 13:45:20.753,77782,236057,201334,-928,-0.2841304,-1472,-0.4506896
2023-10-26 13:45:20.753,77783,236065,201316,-1176,-0.3600618,-1478,-0.45252665
2023-10-26 13:45:20.753,77784,236069,201326,-1248,-0.3821064,-1489,-0.455894575
2023-10-26 13:45:20.783,77785,236052,201325,-1059,-0.324239325,-1507,-0.461405725
2023-10-26 13:45:20.783,77786,236052,201317,-1157,-0.354244475,-1527,-0.467529225
2023-10-26 13:45:20.783,77787,236061,201333,-1491,-0.456506925,-1542,-0.47212185
2023-10-26 13:45:20.813,77788,236063,201306,-1434,-0.43905495,-1555,-0.476102125
2023-10-26 13:45:20.813,77789,236068,201320,-1073,-0.328525775,-1565,-0.479163875
2023-10-26 13:45:20.813,77790,236094,201313,-961,-0.294234175,-1566,-0.47947005
2023-10-26 13:45:20.813,77791,236064,201325,-1131,-0.346283925,-1552,-0.4751836
2023-10-26 13:45:20.813,77792,236093,201312,-1071,-0.327913425,-1527,-0.467529225
2023-10-26 13:45:20.813,77793,236101,201336,-788,-0.2412659,-1499,-0.458956325
2023-10-26 13:45:20.853,77794,236085,201329,-749,-0.229325075,-1461,-0.447321675
2023-10-26 13:45:20.853,77795,236104,201342,-1062,-0.32515785,-1414,-0.43293145
2023-10-26 13:45:20.853,77796,236093,201330,-1105,-0.338323375,-1363,-0.417316525
2023-10-26 13:45:20.853,77797,236109,201326,-835,-0.255656125,-1317,-0.403232475
2023-10-26 13:45:20.853,77798,236107,201337,-816,-0.2498388,-1273,-0.389760775
2023-10-26 13:45:20.853,77799,236115,201331,-1039,-0.318115825,-1228,-0.3759829
2023-10-26 13:45:20.853,77800,236126,201340,-1039,-0.318115825,-1188,-0.3637359
2023-10-26 13:45:20.853,77801,236115,201347,-816,-0.2498388,-1163,-0.356081525
2023-10-26 13:45:20.853,77802,236122,201327,-825,-0.252594375,-1148,-0.3514889
2023-10-26 13:45:20.883,77803,236116,201329,-1035,-0.316891125,-1139,-0.348733325
2023-10-26 13:45:20.883,77804,236117,201330,-1023,-0.313217025,-1138,-0.34842715
2023-10-26 13:45:20.883,77805,236126,201343,-750,-0.22963125,-1146,-0.35087655
2023-10-26 13:45:20.883,77806,236160,201332,-736,-0.2253448,-1156,-0.3539383
2023-10-26 13:45:20.883,77807,236135,201334,-986,-0.30188855,-1160,-0.355163
2023-10-26 13:45:20.883,77808,236143,201321,-1008,-0.3086244,-1161,-0.355469175
2023-10-26 13:45:20.883,77809,236112,201305,-785,-0.240347375,-1163,-0.356081525
2023-10-26 13:45:20.883,77810,236100,201317,-767,-0.234836225,-1162,-0.35577535
2023-10-26 13:45:20.913,77811,236091,201322,-1004,-0.3073997,-1150,-0.35210125
2023-10-26 13:45:20.913,77812,236073,201313,-1013,-0.310155275,-1132,-0.3465901
2023-10-26 13:45:20.913,77813,236079,201297,-738,-0.22595715,-1114,-0.34107895
2023-10-26 13:45:20.913,77814,236072,201306,-692,-0.2118731,-1092,-0.3343431
2023-10-26 13:45:20.913,77815,236035,201301,-914,-0.27984395,-1062,-0.32515785
2023-10-26 13:45:20.913,77816,236050,201298,-930,-0.28474275,-1030,-0.31536025
2023-10-26 13:45:20.943,77817,236043,201291,-688,-0.2106484,-1003,-0.307093525
2023-10-26 13:45:20.943,77818,236055,201305,-626,-0.19166555,-981,-0.300357675
2023-10-26 13:45:20.943,77819,236033,201291,-795,-0.243409125,-959,-0.293621825
2023-10-26 13:45:20.943,77820,236020,201284,-751,-0.229937425,-940,-0.2878045
2023-10-26 13:45:20.943,77821,236046,201303,-469,-0.143596075,-929,-0.284436575
2023-10-26 13:45:20.943,77822,236020,201283,-404,-0.1236947,-924,-0.2829057
2023-10-26 13:45:20.943,77823,236005,201289,-661,-0.202381675,-919,-0.281374825
2023-10-26 13:45:20.973,77824,236048,201288,-687,-0.210342225,-915,-0.280150125
2023-10-26 13:45:20.973,77825,236010,201285,-352,-0.1077736,-917,-0.280762475
2023-10-26 13:45:20.973,77826,236039,201297,-257,-0.078686975,-919,-0.281374825
2023-10-26 13:45:20.973,77827,236035,201292,-509,-0.155843075,-914,-0.27984395
2023-10-26 13:45:20.973,77828,236049,201299,-565,-0.172988875,-905,-0.277088375
2023-10-26 13:45:20.973,77829,236059,201306,-329,-0.100731575,-899,-0.275251325
2023-10-26 13:45:20.973,77830,236072,201285,-253,-0.077462275,-893,-0.273414275
2023-10-26 13:45:21.003,77831,236067,201302,-533,-0.163191275,-883,-0.270352525
2023-10-26 13:45:21.003,77832,236065,201282,-552,-0.1690086,-875,-0.267903125
2023-10-26 13:45:21.003,77833,236078,201287,-329,-0.100731575,-873,-0.267290775
2023-10-26 13:45:21.003,77834,236070,201296,-316,-0.0967513,-871,-0.266678425
2023-10-26 13:45:21.003,77835,236078,201287,-609,-0.186460575,-862,-0.26392285
2023-10-26 13:45:21.033,77836,236096,201291,-663,-0.202994025,-847,-0.259330225
2023-10-26 13:45:21.033,77837,236096,201308,-395,-0.120939125,-831,-0.254431425
2023-10-26 13:45:21.033,77838,236116,201329,-313,-0.095832775,-813,-0.248920275
2023-10-26 13:45:21.063,77839,236132,201322,-556,-0.1702333,-787,-0.240959725
2023-10-26 13:45:21.063,77840,236162,201331,-601,-0.184011175,-758,-0.23208065
2023-10-26 13:45:21.063,77841,236180,201366,-231,-0.070726425,-731,-0.223813925
2023-10-26 13:45:21.063,77842,236186,201362,-72,-0.0220446,-704,-0.2155472
2023-10-26 13:45:21.063,77843,236203,201365,-276,-0.0845043,-668,-0.2045249
2023-10-26 13:45:21.063,77844,236207,201356,-319,-0.097669825,-628,-0.1922779
2023-10-26 13:45:21.103,77845,236191,201351,-139,-0.042558325,-594,-0.18186795
2023-10-26 13:45:21.103,77846,236236,201361,-99,-0.030311325,-563,-0.172376525
2023-10-26 13:45:21.103,77847,236230,201356,-315,-0.096445125,-531,-0.162578925
2023-10-26 13:45:21.103,77848,236248,201341,-417,-0.127674975,-502,-0.15369985
2023-10-26 13:45:21.103,77849,236254,201357,-207,-0.063378225,-480,-0.146964
2023-10-26 13:45:21.103,77850,236248,201366,-135,-0.041333625,-464,-0.1420652
2023-10-26 13:45:21.103,77851,236271,201379,-367,-0.112366225,-447,-0.136860225
2023-10-26 13:45:21.103,77852,236280,201374,-457,-0.139921975,-434,-0.13287995
2023-10-26 13:45:21.103,77853,236281,201390,-276,-0.0845043,-432,-0.1322676
2023-10-26 13:45:21.133,77854,236296,201375,-219,-0.067052325,-437,-0.133798475
2023-10-26 13:45:21.133,77855,236317,201389,-482,-0.14757635,-441,-0.135023175
2023-10-26 13:45:21.133,77856,236321,201385,-549,-0.168090075,-443,-0.135635525
2023-10-26 13:45:21.133,77857,236311,201391,-326,-0.09981305,-449,-0.137472575
2023-10-26 13:45:21.133,77858,236330,201399,-275,-0.084198125,-453,-0.138697275
2023-10-26 13:45:21.133,77859,236357,201397,-501,-0.153393675,-448,-0.1371664
2023-10-26 13:45:21.133,77860,236357,201404,-551,-0.168702425,-436,-0.1334923
2023-10-26 13:45:21.133,77861,236347,201402,-292,-0.0894031,-423,-0.129512025
2023-10-26 13:45:21.133,77862,236366,201416,-244,-0.0747067,-408,-0.1249194
2023-10-26 13:45:21.133,77863,236362,201407,-759,-0.232386825,-385,-0.117877375
2023-10-26 13:45:21.163,77864,236390,201402,-847,-0.259330225,-356,-0.1089983
2023-10-26 13:45:21.163,77865,236350,201400,-524,-0.1604357,-330,-0.10103775
2023-10-26 13:45:21.163,77866,236391,201406,-380,-0.1163465,-309,-0.094608075
2023-10-26 13:45:21.163,77867,236395,201421,-526,-0.16104805,-287,-0.087872225
2023-10-26 13:45:21.163,77868,236388,201394,-600,-0.183705,-267,-0.081748725
2023-10-26 13:45:21.163,77869,236391,201393,-384,-0.1175712,-257,-0.078686975
2023-10-26 13:45:21.163,77870,236398,201403,-360,-0.110223,-257,-0.078686975
2023-10-26 13:45:21.163,77871,236379,201399,-695,-0.212791625,-259,-0.079299325
2023-10-26 13:45:21.163,77872,236382,201390,-889,-0.272189575,-265,-0.081136375
2023-10-26 13:45:21.193,77873,236382,201388,-685,-0.209729875,-278,-0.08511665
2023-10-26 13:45:21.193,77874,236410,201392,-573,-0.175438275,-296,-0.0906278
2023-10-26 13:45:21.193,77875,236390,201372,-1496,-0.4580378,-314,-0.09613895
2023-10-26 13:45:21.193,77876,236394,201383,-2696,-0.8254478,-331,-0.101343925
2023-10-26 13:45:21.193,77877,236391,201388,-2942,-0.90076685,-351,-0.107467425
2023-10-26 13:45:21.193,77878,236415,201383,-2811,-0.860657925,-369,-0.112978575
2023-10-26 13:45:21.193,77879,236415,201396,-2827,-0.865556725,-381,-0.116652675
2023-10-26 13:45:21.223,77880,236399,201410,-2507,-0.767580725,-392,-0.1200206
2023-10-26 13:45:21.223,77881,236423,201412,-1950,-0.59704125,-410,-0.12553175
2023-10-26 13:45:21.223,77882,236428,201402,-1781,-0.545297675,-433,-0.132573775
2023-10-26 13:45:21.223,77883,236402,201391,-2220,-0.6797085,-451,-0.138084925
2023-10-26 13:45:21.223,77884,236410,201385,-2270,-0.69501725,-466,-0.14267755
2023-10-26 13:45:21.223,77885,236406,201400,-1819,-0.556932325,-482,-0.14757635
2023-10-26 13:45:21.253,77886,236422,201378,-1354,-0.41456095,-498,-0.15247515
2023-10-26 13:45:21.253,77887,236431,201380,-1304,-0.3992522,-508,-0.1555369
2023-10-26 13:45:21.253,77888,236433,201391,-1240,-0.379657,-514,-0.15737395
2023-10-26 13:45:21.253,77889,236426,201390,-896,-0.2743328,-527,-0.161354225
2023-10-26 13:45:21.253,77890,236444,201383,-747,-0.228712725,-545,-0.166865375
2023-10-26 13:45:21.283,77891,236419,201386,-1188,-0.3637359,-561,-0.171764175
2023-10-26 13:45:21.283,77892,236445,201385,-1487,-0.455282225,-592,-0.1812556
2023-10-26 13:45:21.283,77893,236439,201394,-1305,-0.399558375,-668,-0.2045249
2023-10-26 13:45:21.283,77894,236432,201381,-1348,-0.4127239,-795,-0.243409125
2023-10-26 13:45:21.283,77895,236441,201377,-1907,-0.583875725,-957,-0.293009475
2023-10-26 13:45:21.283,77896,236426,201374,-2116,-0.6478663,-1139,-0.348733325
2023-10-26 13:45:21.313,77897,236419,201373,-2012,-0.6160241,-1334,-0.40843745
2023-10-26 13:45:21.313,77898,236422,201357,-1905,-0.583263375,-1550,-0.47457125
2023-10-26 13:45:21.313,77899,236424,201372,-2018,-0.61786115,-1713,-0.524477775
2023-10-26 13:45:21.313,77900,236428,201350,-1974,-0.60438945,-1883,-0.576527525
2023-10-26 13:45:21.313,77901,236406,201366,-1647,-0.504270225,-2039,-0.624290825
2023-10-26 13:45:21.313,77902,236436,201365,-1458,-0.44640315,-2166,-0.66317505
2023-10-26 13:45:21.353,77903,236401,201355,-1639,-0.501820825,-2239,-0.685525825
2023-10-26 13:45:21.353,77904,236425,201351,-1760,-0.538868,-2243,-0.686750525
2023-10-26 13:45:21.353,77905,236433,201373,-1559,-0.477326825,-2188,-0.6699109
2023-10-26 13:45:21.353,77906,236466,201372,-1368,-0.4188474,-2093,-0.640824275
2023-10-26 13:45:21.353,77907,236493,201379,-1551,-0.474877425,-1968,-0.6025524
2023-10-26 13:45:21.383,77908,236487,201390,-1647,-0.504270225,-1830,-0.56030025
2023-10-26 13:45:21.383,77909,236484,201371,-1439,-0.440585825,-1695,-0.518966625
2023-10-26 13:45:21.383,77910,236506,201378,-1290,-0.39496575,-1565,-0.479163875
2023-10-26 13:45:21.383,77911,236526,201393,-1412,-0.4323191,-1442,-0.44150435
2023-10-26 13:45:21.383,77912,236515,201391,-1465,-0.448546375,-1348,-0.4127239
2023-10-26 13:45:21.383,77913,236497,201376,-1249,-0.382412575,-1307,-0.400170725
2023-10-26 13:45:21.383,77914,236505,201385,-1132,-0.3465901,-1323,-0.405069525
2023-10-26 13:45:21.413,77915,236518,201390,-1257,-0.384861975,-1377,-0.421602975
2023-10-26 13:45:21.413,77916,236517,201377,-1306,-0.39986455,-1449,-0.443647575
2023-10-26 13:45:21.413,77917,236533,201378,-1082,-0.33128135,-1524,-0.4666107
2023-10-26 13:45:21.413,77918,236511,201381,-937,-0.286885975,-1592,-0.4874306
2023-10-26 13:45:21.413,77919,236527,201381,-1069,-0.327301075,-1646,-0.50396405
2023-10-26 13:45:21.413,77920,236530,201380,-1151,-0.352407425,-1692,-0.5180481
2023-10-26 13:45:21.413,77921,236538,201379,-940,-0.2878045,-1740,-0.5327445
2023-10-26 13:45:21.413,77922,236538,201368,-753,-0.230549775,-1786,-0.54682855
2023-10-26 13:45:21.413,77923,236532,201382,-882,-0.27004635,-1812,-0.5547891
2023-10-26 13:45:21.443,77924,236534,201384,-1006,-0.30801205,-1807,-0.553258225
2023-10-26 13:45:21.443,77925,236542,201377,-903,-0.276476025,-1778,-0.54437915
2023-10-26 13:45:21.443,77926,236546,201378,-759,-0.232386825,-1730,-0.52968275
2023-10-26 13:45:21.443,77927,236528,201363,-845,-0.258717875,-1671,-0.511618425
2023-10-26 13:45:21.443,77928,236523,201370,-954,-0.29209095,-1611,-0.493247925
2023-10-26 13:45:21.443,77929,236528,201335,-734,-0.22473245,-1563,-0.478551525
2023-10-26 13:45:21.443,77930,236541,201366,-627,-0.191971725,-1526,-0.46722305
2023-10-26 13:45:21.473,77931,236547,201359,-819,-0.250757325,-1493,-0.457119275
2023-10-26 13:45:21.473,77932,236563,201366,-928,-0.2841304,-1457,-0.446096975
2023-10-26 13:45:21.473,77933,236534,201360,-755,-0.231162125,-1423,-0.435687025
2023-10-26 13:45:21.473,77934,236563,201359,-732,-0.2241201,-1391,-0.425889425
2023-10-26 13:45:21.473,77935,236570,201365,-844,-0.2584117,-1357,-0.415479475
2023-10-26 13:45:21.473,77936,236583,201382,-846,-0.25902405,-1318,-0.40353865
2023-10-26 13:45:21.503,77937,236565,201371,-638,-0.19533965,-1279,-0.391597825
2023-10-26 13:45:21.503,77938,236588,201384,-526,-0.16104805,-1240,-0.379657
2023-10-26 13:45:21.503,77939,236625,201387,-721,-0.220752175,-1194,-0.36557295
2023-10-26 13:45:21.503,77940,236628,201403,-873,-0.267290775,-1145,-0.350570375
2023-10-26 13:45:21.533,77941,236629,201413,-722,-0.22105835,-1102,-0.33740485
2023-10-26 13:45:21.533,77942,236629,201404,-574,-0.17574445,-1067,-0.326688725
2023-10-26 13:45:21.533,77943,236647,201397,-707,-0.216465725,-1034,-0.31658495
2023-10-26 13:45:21.533,77944,236652,201402,-780,-0.2388165,-1001,-0.306481175
2023-10-26 13:45:21.533,77945,236657,201399,-511,-0.156455425,-970,-0.29698975
2023-10-26 13:45:21.533,77946,236669,201401,-205,-0.062765875,-942,-0.28841685
2023-10-26 13:45:21.563,77947,236624,201370,-299,-0.091546325,-911,-0.278925425
2023-10-26 13:45:21.563,77948,236653,201392,-360,-0.110223,-880,-0.269434
2023-10-26 13:45:21.563,77949,236662,201389,-3,-0.000918525,-858,-0.26269815
2023-10-26 13:45:21.563,77950,236651,201391,246,0.07531905,-845,-0.258717875
2023-10-26 13:45:21.563,77951,236643,201386,77,0.023575475,-836,-0.2559623
2023-10-26 13:45:21.563,77952,236679,201393,-125,-0.038271875,-828,-0.2535129
2023-10-26 13:45:21.603,77953,236688,201414,53,0.016227275,-819,-0.250757325
2023-10-26 13:45:21.603,77954,236698,201413,121,0.037047175,-807,-0.247083225
2023-10-26 13:45:21.603,77955,236715,201433,-63,-0.019289025,-792,-0.2424906
2023-10-26 13:45:21.603,77956,236769,201454,-112,-0.0342916,-775,-0.237285625
2023-10-26 13:45:21.603,77957,236769,201444,153,0.046844775,-765,-0.234223875
2023-10-26 13:45:21.603,77958,236809,201466,369,0.112978575,-761,-0.232999175
2023-10-26 13:45:21.603,77959,236798,201475,257,0.078686975,-755,-0.231162125
2023-10-26 13:45:21.603,77960,236824,201470,141,0.043170675,-745,-0.228100375
2023-10-26 13:45:21.633,77961,236846,201510,349,0.106855075,-735,-0.225038625
2023-10-26 13:45:21.633,77962,236860,201504,589,0.180337075,-723,-0.221364525
2023-10-26 13:45:21.633,77963,236863,201522,517,0.158292475,-700,-0.2143225
2023-10-26 13:45:21.633,77964,236909,201529,399,0.122163825,-668,-0.2045249
2023-10-26 13:45:21.633,77965,236910,201528,569,0.174213575,-634,-0.19411495
2023-10-26 13:45:21.633,77966,236914,201550,816,0.2498388,-595,-0.182174125
2023-10-26 13:45:21.633,77967,236917,201539,708,0.2167719,-541,-0.165640675
2023-10-26 13:45:21.663,77968,236914,201539,580,0.1775815,-475,-0.145433125
2023-10-26 13:45:21.663,77969,236898,201517,795,0.243409125,-405,-0.124000875
2023-10-26 13:45:21.663,77970,236914,201518,989,0.302807075,-336,-0.1028748
2023-10-26 13:45:21.663,77971,236876,201509,845,0.258717875,-266,-0.08144255
2023-10-26 13:45:21.663,77972,236888,201516,685,0.209729875,-197,-0.060316475
2023-10-26 13:45:21.663,77973,236838,201507,836,0.2559623,-136,-0.0416398
2023-10-26 13:45:21.663,77974,236855,201499,1026,0.31413555,-83,-0.025412525
2023-10-26 13:45:21.663,77975,236843,201484,914,0.27984395,-33,-0.010103775
2023-10-26 13:45:21.663,77976,236840,201502,763,0.233611525,15,0.004592625
2023-10-26 13:45:21.693,77977,236858,201480,879,0.269127825,54,0.01653345
2023-10-26 13:45:21.693,77978,236828,201468,1080,0.330669,85,0.026024875
2023-10-26 13:45:21.693,77979,236825,201464,928,0.2841304,116,0.0355163
2023-10-26 13:45:21.693,77980,236820,201489,728,0.2228954,152,0.0465386
2023-10-26 13:45:21.693,77981,236829,201469,835,0.255656125,191,0.058479425
2023-10-26 13:45:21.693,77982,236828,201483,979,0.299745325,230,0.07042025
2023-10-26 13:45:21.693,77983,236842,201482,850,0.26024875,277,0.084810475
2023-10-26 13:45:21.693,77984,236875,201503,530,0.16227275,333,0.101956275
2023-10-26 13:45:21.693,77985,236870,201480,419,0.128287325,389,0.119102075
2023-10-26 13:45:21.728,77986,236892,201504,562,0.17207035,444,0.1359417
2023-10-26 13:45:21.728,77987,236876,201485,430,0.13165525,503,0.154006025
2023-10-26 13:45:21.728,77988,236879,201492,252,0.0771561,564,0.1726827
2023-10-26 13:45:21.728,77989,236912,201475,332,0.1016501,619,0.189522325
2023-10-26 13:45:21.728,77990,236923,201492,484,0.1481887,663,0.202994025
2023-10-26 13:45:21.759,77991,236891,201493,349,0.106855075,701,0.214628675
2023-10-26 13:45:21.759,77992,236929,201497,164,0.0502127,739,0.226263325
2023-10-26 13:45:21.759,77993,236910,201485,284,0.0869537,771,0.236060925
2023-10-26 13:45:21.794,77994,236934,201493,353,0.108079775,797,0.244021475
2023-10-26 13:45:21.794,77995,236954,201501,44,0.0134717,823,0.251982025
2023-10-26 13:45:21.794,77996,236954,201513,-196,-0.0600103,849,0.259942575
2023-10-26 13:45:21.794,77997,236968,201514,-213,-0.065215275,868,0.2657599
2023-10-26 13:45:21.794,77998,236995,201527,-240,-0.073482,877,0.268515475
2023-10-26 13:45:21.794,77999,237012,201526,-458,-0.14022815,882,0.27004635
2023-10-26 13:45:21.813,78000,237031,201523,-491,-0.150331925,885,0.270964875
2023-10-26 13:45:21.813,78001,237028,201530,-303,-0.092771025,881,0.269740175
2023-10-26 13:45:21.813,78002,237035,201523,-164,-0.0502127,863,0.264229025
2023-10-26 13:45:21.813,78003,237043,201539,-311,-0.095220425,837,0.256268475
2023-10-26 13:45:21.813,78004,237061,201536,-405,-0.124000875,807,0.247083225
2023-10-26 13:45:21.813,78005,237066,201534,-264,-0.0808302,769,0.235448575
2023-10-26 13:45:21.859,78006,237050,201527,-79,-0.024187825,720,0.220446
2023-10-26 13:45:21.859,78007,237058,201521,-173,-0.052968275,668,0.2045249
2023-10-26 13:45:21.859,78008,237073,201526,-416,-0.1273688,616,0.1886038
2023-10-26 13:45:21.859,78009,237070,201533,-408,-0.1249194,562,0.17207035
2023-10-26 13:45:21.859,78010,237072,201548,-395,-0.120939125,507,0.155230725
2023-10-26 13:45:21.859,78011,237081,201534,-603,-0.184623525,453,0.138697275
2023-10-26 13:45:21.859,78012,237097,201536,-641,-0.196258175,404,0.1236947
2023-10-26 13:45:21.859,78013,237091,201532,-511,-0.156455425,354,0.10838595
2023-10-26 13:45:21.880,78014,237102,201535,-282,-0.08634135,300,0.0918525
2023-10-26 13:45:21.880,78015,237109,201543,-489,-0.149719575,242,0.07409435
2023-10-26 13:45:21.880,78016,237108,201541,-722,-0.22105835,180,0.0551115
2023-10-26 13:45:21.880,78017,237105,201524,-649,-0.198707575,113,0.034597775
2023-10-26 13:45:21.880,78018,237099,201539,-513,-0.157067775,44,0.0134717
2023-10-26 13:45:21.880,78019,237077,201522,-613,-0.187685275,-19,-0.005817325
2023-10-26 13:45:21.910,78020,237111,201534,-926,-0.28351805,-79,-0.024187825
2023-10-26 13:45:21.910,78021,237102,201518,-713,-0.218302775,-138,-0.04225215
2023-10-26 13:45:21.910,78022,237113,201531,-429,-0.131349075,-193,-0.059091775
2023-10-26 13:45:21.910,78023,237129,201533,-565,-0.172988875,-238,-0.07286965
2023-10-26 13:45:21.910,78024,237155,201554,-799,-0.244633825,-268,-0.0820549
2023-10-26 13:45:21.947,78025,237150,201559,-620,-0.1898285,-289,-0.088484575
2023-10-26 13:45:21.947,78026,237179,201568,-391,-0.119714425,-305,-0.093383375
2023-10-26 13:45:21.947,78027,237217,201582,-408,-0.1249194,-314,-0.09613895
2023-10-26 13:45:21.947,78028,237260,201597,-689,-0.210954575,-321,-0.098282175
2023-10-26 13:45:21.947,78029,237237,201596,-699,-0.214016325,-330,-0.10103775
2023-10-26 13:45:21.947,78030,237269,201611,-642,-0.19656435,-343,-0.105018025
2023-10-26 13:45:21.977,78031,237277,201624,-747,-0.228712725,-356,-0.1089983
2023-10-26 13:45:21.977,78032,237291,201601,-822,-0.25167585,-368,-0.1126724
2023-10-26 13:45:21.977,78033,237294,201617,-675,-0.206668125,-389,-0.119102075
2023-10-26 13:45:21.977,78034,237271,201612,-335,-0.102568625,-421,-0.128899675
2023-10-26 13:45:21.977,78035,237284,201614,-358,-0.10961065,-455,-0.139309625
2023-10-26 13:45:21.977,78036,237284,201606,-479,-0.146657825,-488,-0.1494134
2023-10-26 13:45:22.008,78037,237287,201603,-341,-0.104405675,-521,-0.159517175
2023-10-26 13:45:22.008,78038,237295,201620,-88,-0.0269434,-552,-0.1690086
2023-10-26 13:45:22.008,78039,237299,201617,-101,-0.030923675,-574,-0.17574445
2023-10-26 13:45:22.008,78040,237323,201645,-300,-0.0918525,-589,-0.180337075
2023-10-26 13:45:22.045,78041,237347,201637,-220,-0.0673585,-603,-0.184623525
2023-10-26 13:45:22.045,78042,237350,201634,-19,-0.005817325,-619,-0.189522325
2023-10-26 13:45:22.045,78043,237367,201631,-104,-0.0318422,-628,-0.1922779
2023-10-26 13:45:22.080,78044,237361,201637,-288,-0.0881784,-624,-0.1910532
2023-10-26 13:45:22.080,78045,237377,201646,-216,-0.0661338,-618,-0.18921615
2023-10-26 13:45:22.080,78046,237392,201666,-17,-0.005204975,-616,-0.1886038
2023-10-26 13:45:22.110,78047,237399,201674,-108,-0.0330669,-618,-0.18921615
2023-10-26 13:45:22.110,78048,237416,201671,-332,-0.1016501,-618,-0.18921615
2023-10-26 13:45:24.396,78049,237412,201680,-280,-0.085729,-620,-0.1898285
2023-10-26 13:45:24.436,78050,237439,201678,-143,-0.043783025,-625,-0.191359375
2023-10-26 13:45:24.436,78051,237470,201674,-159,-0.048681825,-624,-0.1910532
2023-10-26 13:45:24.436,78052,237463,201713,-426,-0.13043055,-614,-0.18799145
2023-10-26 13:45:24.436,78053,237520,201720,-413,-0.126450275,-600,-0.183705
2023-10-26 13:45:24.476,78054,237530,201737,-299,-0.091546325,-588,-0.1800309
2023-10-26 13:45:24.476,78055,237546,201732,-437,-0.133798475,-570,-0.17451975
2023-10-26 13:45:24.476,78056,237554,201770,-645,-0.197482875,-543,-0.166253025
2023-10-26 13:45:24.476,78057,237561,201744,-657,-0.201156975,-509,-0.155843075
2023-10-26 13:45:24.476,78058,237561,201758,-490,-0.15002575,-469,-0.143596075
2023-10-26 13:45:24.496,78059,237560,201747,-553,-0.169314775,-422,-0.12920585
2023-10-26 13:45:24.496,78060,237580,201748,-750,-0.22963125,-369,-0.112978575
2023-10-26 13:45:24.496,78061,237590,201776,-714,-0.21860895,-319,-0.097669825
2023-10-26 13:45:24.496,78062,237629,201786,-550,-0.16839625,-278,-0.08511665
2023-10-26 13:45:24.526,78063,237622,201770,-597,-0.182786475,-240,-0.073482
2023-10-26 13:45:24.526,78064,237653,201781,-750,-0.22963125,-205,-0.062765875
2023-10-26 13:45:24.526,78065,237656,201802,-677,-0.207280475,-178,-0.05449915
2023-10-26 13:45:24.526,78066,237669,201798,-668,-0.2045249,-166,-0.05082505
2023-10-26 13:45:24.556,78067,237672,201819,-879,-0.269127825,-164,-0.0502127
2023-10-26 13:45:24.556,78068,237688,201820,-931,-0.285048925,-166,-0.05082505
2023-10-26 13:45:24.556,78069,237692,201808,-794,-0.24310295,-175,-0.053580625
2023-10-26 13:45:24.586,78070,237706,201804,-602,-0.18431735,-191,-0.058479425
2023-10-26 13:45:24.586,78071,237699,201797,-622,-0.19044085,-210,-0.06429675
2023-10-26 13:45:24.616,78072,237718,201813,-748,-0.2290189,-229,-0.070114075
2023-10-26 13:45:24.616,78073,237685,201809,-697,-0.213403975,-251,-0.076849925
2023-10-26 13:45:24.646,78074,237715,201804,-540,-0.1653345,-283,-0.086647525
2023-10-26 13:45:24.676,78075,237718,201795,-552,-0.1690086,-320,-0.097976
2023-10-26 13:45:25.016,78076,237732,201807,-761,-0.232999175,-357,-0.109304475
2023-10-26 13:45:25.056,78077,237715,201820,-815,-0.249532625,-396,-0.1212453
2023-10-26 13:45:25.056,78078,237766,201846,-628,-0.1922779,-439,-0.134410825
2023-10-26 13:45:25.086,78079,237791,201845,-669,-0.204831075,-481,-0.147270175
2023-10-26 13:45:25.086,78080,237793,201837,-928,-0.2841304,-516,-0.1579863
2023-10-26 13:45:25.116,78081,237799,201850,-856,-0.2620858,-547,-0.167477725
2023-10-26 13:45:25.146,78082,237828,201875,-670,-0.20513725,-577,-0.176662975
2023-10-26 13:45:25.176,78083,237826,201858,-782,-0.23942885,-605,-0.185235875
2023-10-26 13:45:25.206,78084,237839,201859,-1016,-0.3110738,-630,-0.19289025
2023-10-26 13:45:25.236,78085,237847,201867,-923,-0.282599525,-655,-0.200544625
2023-10-26 13:45:25.680,78086,237841,201866,-709,-0.217078075,-680,-0.208199
2023-10-26 13:45:25.680,78087,237819,201863,-676,-0.2069743,-699,-0.214016325
2023-10-26 13:45:25.680,78088,237863,201857,-857,-0.262391975,-709,-0.217078075
2023-10-26 13:45:25.723,78089,237836,201848,-951,-0.291172425,-716,-0.2192213
2023-10-26 13:45:25.723,78090,237839,201842,-1136,-0.3478148,-722,-0.22105835
2023-10-26 13:45:25.723,78091,237843,201841,-1490,-0.45620075,-724,-0.2216707
2023-10-26 13:45:25.746,78092,237838,201842,-1687,-0.516517225,-721,-0.220752175
2023-10-26 13:45:25.746,78093,237840,201841,-1691,-0.517741925,-716,-0.2192213
2023-10-26 13:45:25.746,78094,237853,201844,-1575,-0.482225625,-714,-0.21860895
2023-10-26 13:45:25.776,78095,237846,201834,-1403,-0.429563525,-709,-0.217078075
2023-10-26 13:45:25.776,78096,237871,201861,-1439,-0.440585825,-700,-0.2143225
2023-10-26 13:45:25.813,78097,237858,201834,-1363,-0.417316525,-696,-0.2130978
2023-10-26 13:45:25.813,78098,237860,201840,-1140,-0.3490395,-698,-0.21371015
2023-10-26 13:45:25.848,78099,237869,201857,-1251,-0.383024925,-704,-0.2155472
2023-10-26 13:45:25.891,78100,237875,201850,-1579,-0.483450325,-709,-0.217078075
2023-10-26 13:45:25.945,78101,237899,201854,-1545,-0.473040375,-719,-0.220139825
2023-10-26 13:45:25.980,78102,237931,201876,-1269,-0.388536075,-736,-0.2253448
2023-10-26 13:45:27.536,78103,237900,201870,-1259,-0.385474325,-756,-0.2314683
2023-10-26 13:45:27.536,78104,237889,201858,-1409,-0.431400575,-773,-0.236673275
2023-10-26 13:45:27.536,78105,237915,201873,-1301,-0.398333675,-788,-0.2412659
2023-10-26 13:45:27.536,78106,237923,201883,-1014,-0.31046145,-806,-0.24677705
2023-10-26 13:45:27.566,78107,237928,201864,-945,-0.289335375,-829,-0.253819075
2023-10-26 13:45:27.566,78108,237929,201881,-1243,-0.380575525,-859,-0.263004325
2023-10-26 13:45:27.566,78109,237954,201872,-1346,-0.41211155,-900,-0.2755575
2023-10-26 13:45:27.566,78110,237944,201875,-1123,-0.343834525,-956,-0.2927033
2023-10-26 13:45:27.566,78111,237955,201889,-1031,-0.315666425,-1020,-0.3122985
2023-10-26 13:45:27.566,78112,237954,201893,-1124,-0.3441407,-1087,-0.332812225
2023-10-26 13:45:27.566,78113,237952,201895,-1128,-0.3453654,-1154,-0.35332595
2023-10-26 13:45:27.566,78114,237982,201905,-905,-0.277088375,-1222,-0.37414585
2023-10-26 13:45:27.566,78115,238007,201911,-810,-0.24800175,-1284,-0.3931287
2023-10-26 13:45:27.596,78116,238019,201911,-975,-0.298520625,-1335,-0.408743625
2023-10-26 13:45:27.596,78117,239159,202186,-1855,-0.567954625,-1378,-0.42190915
2023-10-26 13:45:27.596,78118,238998,202140,-1382,-0.42313385,-1412,-0.4323191
2023-10-26 13:45:27.596,78119,238997,202102,-1265,-0.387311375,-1430,-0.43783025
2023-10-26 13:45:27.596,78120,238996,202121,-1426,-0.43660555,-1433,-0.438748775
2023-10-26 13:45:27.596,78121,238972,202107,-1473,-0.450995775,-1429,-0.437524075
2023-10-26 13:45:27.596,78122,238979,202109,-1265,-0.387311375,-1418,-0.43415615
2023-10-26 13:45:27.596,78123,238979,202120,-1142,-0.34965185,-1398,-0.42803265
2023-10-26 13:45:27.596,78124,238973,202091,-1253,-0.383637275,-1365,-0.417928875
2023-10-26 13:45:27.596,78125,238994,202122,-1318,-0.40353865,-1328,-0.4066004
2023-10-26 13:45:27.596,78126,238999,202126,-1142,-0.34965185,-1296,-0.3968028
2023-10-26 13:45:27.596,78127,238996,202097,-1029,-0.315054075,-1271,-0.389148425
2023-10-26 13:45:27.596,78128,238984,202106,-1152,-0.3527136,-1247,-0.381800225
2023-10-26 13:45:27.626,78129,238997,202100,-1104,-0.3380172,-1226,-0.37537055
2023-10-26 13:45:27.626,78130,238989,202093,-835,-0.255656125,-1211,-0.370777925
2023-10-26 13:45:27.626,78131,238964,202098,-652,-0.1996261,-1195,-0.365879125
2023-10-26 13:45:27.626,78132,238978,202096,-702,-0.21493485,-1168,-0.3576124
2023-10-26 13:45:27.626,78133,238984,202098,-725,-0.221976875,-1135,-0.347508625
2023-10-26 13:45:27.626,78134,238969,202090,-523,-0.160129525,-1118,-0.34230365
2023-10-26 13:45:27.626,78135,238978,202081,-276,-0.0845043,-1117,-0.341997475
2023-10-26 13:45:27.626,78136,238961,202090,-342,-0.10471185,-1123,-0.343834525
2023-10-26 13:45:27.626,78137,238978,202081,-362,-0.11083535,-1137,-0.348120975
2023-10-26 13:45:27.626,78138,238940,202070,-67,-0.020513725,-1164,-0.3563877
2023-10-26 13:45:27.626,78139,238968,202071,73,0.022350775,-1198,-0.36679765
2023-10-26 13:45:27.626,78140,238963,202082,-49,-0.015002575,-1230,-0.37659525
2023-10-26 13:45:27.626,78141,238955,202059,-84,-0.0257187,-1254,-0.38394345
2023-10-26 13:45:27.666,78142,238968,202076,96,0.0293928,-1272,-0.3894546
2023-10-26 13:45:27.666,78143,238967,202063,194,0.05939795,-1287,-0.394047225
2023-10-26 13:45:27.666,78144,238969,202072,12,0.0036741,-1293,-0.395884275
2023-10-26 13:45:27.666,78145,238956,202040,-62,-0.01898285,-1285,-0.393434875
2023-10-26 13:45:27.666,78146,238957,202071,127,0.038884225,-1271,-0.389148425
2023-10-26 13:45:27.666,78147,238900,202039,252,0.0771561,-1253,-0.383637275
2023-10-26 13:45:27.666,78148,238955,202041,38,0.01163465,-1223,-0.374452025
2023-10-26 13:45:27.666,78149,238933,202028,-68,-0.0208199,-1178,-0.36067415
2023-10-26 13:45:27.666,78150,238963,202033,76,0.0232693,-1120,-0.342916
2023-10-26 13:45:27.666,78151,238945,202034,136,0.0416398,-1052,-0.3220961
2023-10-26 13:45:27.696,78152,238944,202041,35,0.010716125,-973,-0.297908275
2023-10-26 13:45:27.696,78153,238949,202042,-59,-0.018064325,-889,-0.272189575
2023-10-26 13:45:27.696,78154,238949,202033,101,0.030923675,-809,-0.247695575
2023-10-26 13:45:27.696,78155,238945,202017,261,0.079911675,-731,-0.223813925
2023-10-26 13:45:27.696,78156,238940,202015,273,0.083585775,-650,-0.19901375
2023-10-26 13:45:27.696,78157,238920,202020,437,0.133798475,-564,-0.1726827
2023-10-26 13:45:27.696,78158,238914,202002,685,0.209729875,-477,-0.146045475
2023-10-26 13:45:27.696,78159,239417,202114,-532,-0.1628851,-390,-0.11940825
2023-10-26 13:45:27.726,78160,239411,202113,-723,-0.221364525,-303,-0.092771025
2023-10-26 13:45:27.726,78161,239426,202109,-708,-0.2167719,-220,-0.0673585
2023-10-26 13:45:27.726,78162,239436,202139,-689,-0.210954575,-149,-0.045620075
2023-10-26 13:45:27.726,78163,239462,202138,-851,-0.260554925,-93,-0.028474275
2023-10-26 13:45:27.726,78164,239469,202136,-994,-0.30433795,-47,-0.014390225
2023-10-26 13:45:27.726,78165,239472,202148,-795,-0.243409125,-8,-0.0024494
2023-10-26 13:45:27.726,78166,239483,202140,-497,-0.152168975,18,0.00551115
2023-10-26 13:45:27.756,78167,239480,202140,-505,-0.154618375,37,0.011328475
2023-10-26 13:45:27.756,78168,239471,202142,-597,-0.182786475,53,0.016227275
2023-10-26 13:45:27.756,78169,239495,202134,-343,-0.105018025,68,0.0208199
2023-10-26 13:45:27.756,78170,239498,202142,-95,-0.029086625,74,0.02265695
2023-10-26 13:45:27.756,78171,239491,202144,-186,-0.05694855,74,0.02265695
2023-10-26 13:45:27.786,78172,239478,202146,-373,-0.114203275,74,0.02265695
2023-10-26 13:45:27.786,78173,239485,202152,-281,-0.086035175,80,0.024494
2023-10-26 13:45:27.786,78174,239492,202162,-116,-0.0355163,93,0.028474275
2023-10-26 13:45:27.786,78175,239514,202166,-284,-0.0869537,110,0.03367925
2023-10-26 13:45:27.816,78176,239519,202142,-431,-0.131961425,118,0.03612865
2023-10-26 13:45:27.816,78177,239533,202159,-334,-0.10226245,109,0.033373075
2023-10-26 13:45:27.816,78178,239481,202159,-152,-0.0465386,84,0.0257187
2023-10-26 13:45:27.846,78179,239522,202151,-320,-0.097976,42,0.01285935
2023-10-26 13:45:27.916,78180,239523,202143,-597,-0.182786475,-16,-0.0048988
2023-10-26 13:45:27.916,78181,239507,202146,-543,-0.166253025,-94,-0.02878045
2023-10-26 13:45:27.916,78182,239519,202147,-364,-0.1114477,-186,-0.05694855
2023-10-26 13:45:27.916,78183,239527,202145,-491,-0.150331925,-281,-0.086035175
2023-10-26 13:45:27.916,78184,239506,202144,-734,-0.22473245,-373,-0.114203275
2023-10-26 13:45:27.916,78185,239516,202128,-687,-0.210342225,-460,-0.1408405
2023-10-26 13:45:27.916,78186,239533,202144,-466,-0.14267755,-535,-0.163803625
2023-10-26 13:45:27.956,78187,239522,202135,-525,-0.160741875,-580,-0.1775815
2023-10-26 13:45:27.956,78188,239537,202150,-744,-0.2277942,-593,-0.181561775
2023-10-26 13:45:27.956,78189,239530,202149,-662,-0.20268785,-589,-0.180337075
2023-10-26 13:45:27.956,78190,239526,202151,-425,-0.130124375,-575,-0.176050625
2023-10-26 13:45:27.956,78191,239562,202153,-540,-0.1653345,-545,-0.166865375
2023-10-26 13:45:27.956,78192,239571,202157,-805,-0.246470875,-498,-0.15247515
2023-10-26 13:45:27.956,78193,239565,202161,-670,-0.20513725,-440,-0.134717
2023-10-26 13:45:27.956,78194,239561,202160,-467,-0.142983725,-381,-0.116652675
2023-10-26 13:45:27.986,78195,239562,202167,-574,-0.17574445,-326,-0.09981305
2023-10-26 13:45:27.986,78196,239561,202159,-808,-0.2473894,-284,-0.0869537
2023-10-26 13:45:27.986,78197,239571,202172,-753,-0.230549775,-268,-0.0820549
2023-10-26 13:45:27.986,78198,239571,202163,-562,-0.17207035,-277,-0.084810475
2023-10-26 13:45:27.986,78199,239578,202162,-663,-0.202994025,-301,-0.092158675
2023-10-26 13:45:27.986,78200,239573,202159,-878,-0.26882165,-327,-0.100119225
2023-10-26 13:45:28.006,78201,237841,200951,4730,1.44820775,-355,-0.108692125
2023-10-26 13:45:28.006,78202,237844,200933,4646,1.42248905,-386,-0.11818355
2023-10-26 13:45:28.006,78203,237823,200923,4273,1.308285775,-414,-0.12675645
2023-10-26 13:45:28.006,78204,237807,200888,4277,1.309510475,-439,-0.134410825
2023-10-26 13:45:28.006,78205,237806,200876,4552,1.3937086,-468,-0.1432899
2023-10-26 13:45:28.036,78206,237784,200879,4423,1.354212025,-502,-0.15369985
2023-10-26 13:45:28.036,78207,237743,200848,4037,1.236028475,-532,-0.1628851
2023-10-26 13:45:28.036,78208,237708,200833,4056,1.2418458,-554,-0.16962095
2023-10-26 13:45:28.036,78209,237689,200817,4318,1.32206365,-572,-0.1751321
2023-10-26 13:45:28.066,78210,237653,200783,4202,1.28654735,-588,-0.1800309
2023-10-26 13:45:28.066,78211,237637,200794,3864,1.1830602,-599,-0.183398825
2023-10-26 13:45:28.066,78212,237608,200761,3914,1.19836895,-604,-0.1849297
2023-10-26 13:45:28.096,78213,237608,200768,4204,1.2871597,-607,-0.185848225
2023-10-26 13:45:28.096,78214,237600,200745,4082,1.24980635,-615,-0.188297625
2023-10-26 13:45:28.126,78215,237572,200717,3695,1.131316625,-622,-0.19044085
2023-10-26 13:45:28.126,78216,237541,200702,3687,1.128867225,-631,-0.193196425
2023-10-26 13:45:28.166,78217,237553,200708,3908,1.1965319,-618,-0.18921615
2023-10-26 13:45:28.166,78218,237525,200688,3891,1.191326925,-511,-0.156455425
2023-10-26 13:45:28.196,78219,237518,200668,3532,1.0814101,-286,-0.08756605
2023-10-26 13:45:28.226,78220,237473,200646,3546,1.08569655,1272,0.3894546
2023-10-26 13:45:29.777,78221,237463,200632,3838,1.17509965,2504,0.7666622
2023-10-26 13:45:29.818,78222,237428,200619,3777,1.156422975,3424,1.0483432
2023-10-26 13:45:29.818,78223,237428,200606,3384,1.0360962,4128,1.2638904
2023-10-26 13:45:29.818,78224,237388,200609,3362,1.02936035,4506,1.37962455
2023-10-26 13:45:29.847,78225,237371,200567,3668,1.1230499,4554,1.39432095
2023-10-26 13:45:29.847,78226,237362,200558,3654,1.11876345,4364,1.3361477
2023-10-26 13:45:29.877,78227,237330,200553,3277,1.003335475,4034,1.23510995
2023-10-26 13:45:29.877,78228,237316,200529,3158,0.96690065,3773,1.155198275
2023-10-26 13:45:29.907,78229,237277,200533,3384,1.0360962,3933,1.204186275
2023-10-26 13:45:29.947,78230,237293,200511,3277,1.003335475,4130,1.26450275
2023-10-26 13:45:29.977,78231,237270,200509,2860,0.8756605,4237,1.297263475
2023-10-26 13:45:30.007,78232,237254,200512,2823,0.864332025,4294,1.31471545
2023-10-26 13:45:30.047,78233,237282,200501,3088,0.9454684,4293,1.314409275
2023-10-26 13:45:30.047,78234,237270,200500,2953,0.904134775,4233,1.296038775
2023-10-26 13:45:30.047,78235,237289,200498,2643,0.809220525,4132,1.2651151
2023-10-26 13:45:30.047,78236,237277,200500,2961,0.906584175,4012,1.2283741
2023-10-26 13:45:30.047,78237,237238,200504,3530,1.08079775,3904,1.1953072
2023-10-26 13:45:30.047,78238,237227,200491,3309,1.013133075,3837,1.174793475
2023-10-26 13:45:30.047,78239,237246,200487,2839,0.869230825,3821,1.169894675
2023-10-26 13:45:30.047,78240,237261,200483,2762,0.84565535,3828,1.1720379
2023-10-26 13:45:30.047,78241,237239,200497,2993,0.916381775,3824,1.1708132
2023-10-26 13:45:30.047,78242,237247,200481,2888,0.8842334,3794,1.16162795
2023-10-26 13:45:30.047,78243,236980,200270,2085,0.638374875,3743,1.146013025
2023-10-26 13:45:30.047,78244,236945,200234,2078,0.63623165,3678,1.12611165
2023-10-26 13:45:30.047,78245,236958,200238,1706,0.52233455,3610,1.10529175
2023-10-26 13:45:30.067,78246,236895,200216,1692,0.5180481,3556,1.0887583
2023-10-26 13:45:30.067,78247,236890,200217,1973,0.604083275,3523,1.078654525
2023-10-26 13:45:30.067,78248,236862,200191,1886,0.57744605,3498,1.07100015
2023-10-26 13:45:30.067,78249,236850,200184,1523,0.466304525,3407,1.043138225
2023-10-26 13:45:30.067,78250,236811,200174,1539,0.471203325,3314,1.01466395
2023-10-26 13:45:30.067,78251,236792,200158,1870,0.57254725,3242,0.99261935
2023-10-26 13:45:30.067,78252,236760,200145,1839,0.563055825,3156,0.9662883
2023-10-26 13:45:30.067,78253,236742,200131,1474,0.45130195,3126,0.95710305
2023-10-26 13:45:30.067,78254,236737,200140,1495,0.457731625,3139,0.961083325
2023-10-26 13:45:30.067,78255,236738,200132,1826,0.55907555,3103,0.950061025
2023-10-26 13:45:30.067,78256,236700,200109,1784,0.5462162,3079,0.942712825
2023-10-26 13:45:30.067,78257,236680,200075,1392,0.4261956,3053,0.934752275
2023-10-26 13:45:30.067,78258,236647,200052,1372,0.4200721,3030,0.92771025
2023-10-26 13:45:30.067,78259,236641,200045,1691,0.517741925,3011,0.921892925
2023-10-26 13:45:30.067,78260,236609,200028,1716,0.5253963,2985,0.913932375
2023-10-26 13:45:30.067,78261,236602,200023,1330,0.40721275,2938,0.89954215
2023-10-26 13:45:30.067,78262,236609,200032,1343,0.411193025,2639,0.807995825
2023-10-26 13:45:30.097,78263,236631,200009,1709,0.523253075,2215,0.678177625
2023-10-26 13:45:30.097,78264,236616,200013,1711,0.523865425,1989,0.608982075
2023-10-26 13:45:30.097,78265,236632,200044,1353,0.414254775,1866,0.57132255
2023-10-26 13:45:30.097,78266,236636,200035,1390,0.42558325,1763,0.539786525
2023-10-26 13:45:30.097,78267,236653,200057,1764,0.5400927,1716,0.5253963
2023-10-26 13:45:30.097,78268,236683,200059,1757,0.537949475,1767,0.541011225
2023-10-26 13:45:30.097,78269,236660,200070,1409,0.431400575,1823,0.558157025
2023-10-26 13:45:30.097,78270,236684,200068,1478,0.45252665,1798,0.55050265
2023-10-26 13:45:30.097,78271,236707,200076,1912,0.5854066,1762,0.53948035
2023-10-26 13:45:30.097,78272,236696,200089,1983,0.607145025,1781,0.545297675
2023-10-26 13:45:30.097,78273,236704,200094,1691,0.517741925,1725,0.528151875
2023-10-26 13:45:30.097,78274,236701,200087,1782,0.54560385,1690,0.51743575
2023-10-26 13:45:30.097,78275,236668,200082,2182,0.66807385,1664,0.5094752
2023-10-26 13:45:30.097,78276,236659,200070,2184,0.6686862,1649,0.504882575
2023-10-26 13:45:30.097,78277,236644,200060,1938,0.59336715,1647,0.504270225
2023-10-26 13:45:30.097,78278,236612,200046,2077,0.635925475,1643,0.503045525
2023-10-26 13:45:30.097,78279,236604,200036,2587,0.792074725,1625,0.497534375
2023-10-26 13:45:30.127,78280,236572,200035,2670,0.81748725,1600,0.48988
2023-10-26 13:45:30.127,78281,236554,200025,2027,0.620616725,1580,0.4837565
2023-10-26 13:45:30.127,78282,236530,200004,1898,0.58112015,1564,0.4788577
2023-10-26 13:45:30.127,78283,236518,200013,2358,0.72196065,1550,0.47457125
2023-10-26 13:45:30.127,78284,236503,199989,2439,0.746760825,1544,0.4727342
2023-10-26 13:45:30.127,78285,236457,199974,2089,0.639599575,1550,0.47457125
2023-10-26 13:45:30.127,78286,236444,199958,2093,0.640824275,1558,0.47702065
2023-10-26 13:45:30.127,78287,236423,199941,2418,0.74033115,1558,0.47702065
2023-10-26 13:45:30.127,78288,236398,199938,2436,0.7458423,1557,0.476714475
2023-10-26 13:45:30.127,78289,236376,199925,2013,0.616330275,1568,0.4800824
2023-10-26 13:45:30.127,78290,236380,199910,1853,0.567342275,1588,0.4862059
2023-10-26 13:45:30.127,78291,236361,199901,2128,0.6515404,1614,0.49416645
2023-10-26 13:45:30.127,78292,236327,199901,2179,0.667155325,1649,0.504882575
2023-10-26 13:45:30.127,78293,236314,199904,1864,0.5707102,1697,0.519578975
2023-10-26 13:45:30.157,78294,236288,199886,1876,0.5743843,1749,0.535500075
2023-10-26 13:45:30.157,78295,236302,199873,2209,0.676340575,1798,0.55050265
2023-10-26 13:45:30.157,78296,236291,199874,2402,0.73543235,1893,0.579589275
2023-10-26 13:45:30.157,78297,236291,199882,2289,0.700834575,2043,0.625515525
2023-10-26 13:45:30.157,78298,236300,199867,2358,0.72196065,2082,0.63745635
2023-10-26 13:45:30.157,78299,236309,199878,2860,0.8756605,2073,0.634700775
2023-10-26 13:45:30.157,78300,236277,199834,3172,0.9711871,2090,0.63990575
2023-10-26 13:45:30.157,78301,236269,199832,3051,0.934139925,2136,0.6539898
2023-10-26 13:45:30.157,78302,236274,199836,3068,0.9393449,2183,0.668380025
2023-10-26 13:45:30.157,78303,236276,199842,3479,1.065182825,2213,0.677565275
2023-10-26 13:45:30.157,78304,236262,199828,3717,1.138052475,2232,0.6833826
2023-10-26 13:45:30.157,78305,236250,199833,3524,1.0789607,2248,0.6882814
2023-10-26 13:45:30.157,78306,236516,199792,1034,0.31658495,2257,0.691036975
2023-10-26 13:45:30.157,78307,236531,199810,852,0.2608611,2250,0.68889375
2023-10-26 13:45:30.157,78308,236555,199784,525,0.160741875,2232,0.6833826
2023-10-26 13:45:30.197,78309,236537,199788,186,0.05694855,2218,0.67909615
2023-10-26 13:45:30.197,78310,236525,199796,730,0.22350775,2205,0.675115875
2023-10-26 13:45:30.197,78311,236546,199794,1279,0.391597825,2183,0.668380025
2023-10-26 13:45:30.197,78312,236525,199793,968,0.2963774,2154,0.65950095
2023-10-26 13:45:30.197,78313,236546,199795,578,0.17696915,2134,0.65337745
2023-10-26 13:45:30.197,78314,236517,199804,988,0.3025009,2126,0.65092805
2023-10-26 13:45:30.197,78315,236530,199787,1398,0.42803265,2128,0.6515404
2023-10-26 13:45:30.197,78316,236517,199793,990,0.30311325,2147,0.657357725
2023-10-26 13:45:30.197,78317,236527,199783,568,0.1739074,2213,0.677565275
2023-10-26 13:45:30.197,78318,236492,199792,897,0.274638975,2583,0.790850025
2023-10-26 13:45:30.197,78319,236501,199781,1256,0.3845558,2806,0.85912705
2023-10-26 13:45:30.197,78320,236503,199778,838,0.25657465,3010,0.92158675
2023-10-26 13:45:30.197,78321,236496,199779,412,0.1261441,3240,0.992007
2023-10-26 13:45:30.197,78322,236505,199793,730,0.22350775,3275,1.002723125
2023-10-26 13:45:30.227,78323,236533,199800,1087,0.332812225,2905,0.889438375
2023-10-26 13:45:30.227,78324,236503,199789,774,0.23697945,2402,0.73543235
2023-10-26 13:45:30.227,78325,236508,199784,380,0.1163465,1870,0.57254725
2023-10-26 13:45:30.227,78326,236531,199787,740,0.2265695,1311,0.401395425
2023-10-26 13:45:30.227,78327,236508,199787,1115,0.341385125,913,0.279537775
2023-10-26 13:45:30.227,78328,236512,199778,700,0.2143225,701,0.214628675
2023-10-26 13:45:30.227,78329,236494,199771,280,0.085729,540,0.1653345
2023-10-26 13:45:30.227,78330,236481,199773,674,0.20636195,441,0.135023175
2023-10-26 13:45:30.227,78331,236464,199756,1080,0.330669,574,0.17574445
2023-10-26 13:45:30.227,78332,236460,199752,694,0.21248545,909,0.278313075
2023-10-26 13:45:30.227,78333,236480,199743,297,0.090933975,1168,0.3576124
2023-10-26 13:45:30.227,78334,236450,199761,666,0.20391255,1199,0.367103825
2023-10-26 13:45:30.227,78335,236469,199748,1104,0.3380172,1106,0.33862955
2023-10-26 13:45:30.227,78336,236458,199751,711,0.217690425,987,0.302194725
2023-10-26 13:45:30.227,78337,236445,199745,328,0.1004254,865,0.264841375
2023-10-26 13:45:30.227,78338,236433,199742,761,0.232999175,739,0.226263325
2023-10-26 13:45:30.257,78339,236418,199729,1230,0.37659525,705,0.215853375
2023-10-26 13:45:30.257,78340,236408,199737,899,0.275251325,792,0.2424906
2023-10-26 13:45:30.257,78341,236405,199732,666,0.20391255,875,0.267903125
2023-10-26 13:45:30.257,78342,236389,199711,1197,0.366491475,908,0.2780069
2023-10-26 13:45:30.257,78343,236380,199726,1886,0.57744605,897,0.274638975
2023-10-26 13:45:30.257,78344,236357,199706,1823,0.558157025,877,0.268515475
2023-10-26 13:45:30.257,78345,236359,199708,1728,0.5290704,833,0.255043775
2023-10-26 13:45:30.257,78346,236352,199720,2491,0.762681925,782,0.23942885
2023-10-26 13:45:30.257,78347,236342,199718,3195,0.978229125,737,0.225650975
2023-10-26 13:45:30.257,78348,236344,199719,2805,0.858820875,719,0.220139825
2023-10-26 13:45:30.257,78349,236347,199726,2460,0.7531905,727,0.222589225
2023-10-26 13:45:30.257,78350,236338,199730,3081,0.943325175,735,0.225038625
2023-10-26 13:45:30.257,78351,236368,199732,3666,1.12243755,730,0.22350775
2023-10-26 13:45:30.257,78352,236376,199744,3194,0.97792295,721,0.220752175
2023-10-26 13:45:30.257,78353,236387,199731,2714,0.83095895,713,0.218302775
2023-10-26 13:45:30.257,78354,236395,199747,3202,0.98037235,700,0.2143225
2023-10-26 13:45:30.257,78355,236418,199755,3715,1.137440125,685,0.209729875
2023-10-26 13:45:30.257,78356,236410,199744,3154,0.96567595,687,0.210342225
2023-10-26 13:45:30.257,78357,236426,199749,2576,0.7887068,709,0.217078075
2023-10-26 13:45:30.287,78358,236412,199751,3146,0.96322655,734,0.22473245
2023-10-26 13:45:30.287,78359,236432,199765,3669,1.123356075,757,0.231774475
2023-10-26 13:45:30.287,78360,236460,199777,3153,0.965369775,798,0.24432765
2023-10-26 13:45:30.287,78361,236457,199771,2621,0.802484675,1042,0.31903435
2023-10-26 13:45:30.287,78362,236450,199760,3090,0.94608075,1358,0.41578565
2023-10-26 13:45:30.287,78363,236449,199751,3603,1.103148525,1708,0.5229469
2023-10-26 13:45:30.287,78364,236459,199762,3071,0.940263425,2132,0.6527651
2023-10-26 13:45:30.287,78365,236475,199782,2525,0.773091875,2430,0.74400525
2023-10-26 13:45:30.287,78366,236487,199756,2978,0.91178915,2578,0.78931915
2023-10-26 13:45:30.287,78367,236527,199767,3427,1.049261725,2778,0.85055415
2023-10-26 13:45:30.287,78368,236506,199766,2855,0.874129625,3053,0.934752275
2023-10-26 13:45:30.287,78369,236546,199796,2239,0.685525825,3190,0.97669825
2023-10-26 13:45:30.287,78370,236544,199791,2638,0.80768965,3146,0.96322655
2023-10-26 13:45:30.287,78371,236555,199801,3073,0.940875775,3127,0.957409225
2023-10-26 13:45:30.287,78372,236583,199796,2337,0.715530975,3190,0.97669825
2023-10-26 13:45:30.287,78373,236592,199819,1610,0.49294175,3164,0.9687377
2023-10-26 13:45:30.287,78374,236613,199824,1905,0.583263375,3057,0.935976975
2023-10-26 13:45:30.287,78375,236610,199817,2441,0.747373175,3062,0.93750785
2023-10-26 13:45:30.287,78376,236619,199813,1926,0.58969305,3110,0.95220425
2023-10-26 13:45:30.287,78377,236653,199846,1364,0.4176227,3163,0.968431525
2023-10-26 13:45:30.287,78378,236668,199847,1734,0.53090745,3188,0.9760859
2023-10-26 13:45:30.317,78379,236673,199854,2268,0.6944049,3184,0.9748612
2023-10-26 13:45:30.317,78380,236691,199856,1861,0.569791675,3174,0.97179945
2023-10-26 13:45:30.317,78381,236698,199851,1347,0.412417725,3167,0.969656225
2023-10-26 13:45:30.317,78382,236681,199857,1783,0.545910025,3151,0.964757425
2023-10-26 13:45:30.317,78383,236716,199852,2348,0.7188989,3126,0.95710305
2023-10-26 13:45:30.317,78384,236735,199846,1876,0.5743843,3110,0.95220425
2023-10-26 13:45:30.317,78385,236721,199861,1302,0.39863985,3105,0.950673375
2023-10-26 13:45:30.317,78386,236731,199847,1733,0.530601275,3085,0.944549875
2023-10-26 13:45:30.317,78387,236734,199888,2273,0.695935775,3044,0.9319967
2023-10-26 13:45:30.317,78388,236758,199864,1755,0.537337125,2999,0.918218825
2023-10-26 13:45:30.317,78389,236771,199863,1048,0.3208714,2953,0.904134775
2023-10-26 13:45:30.317,78390,236753,199865,1314,0.40231395,2734,0.83708245
2023-10-26 13:45:30.317,78391,236791,199883,1731,0.529988925,2451,0.750434925
2023-10-26 13:45:30.317,78392,236784,199872,1325,0.405681875,2350,0.71951125
2023-10-26 13:45:30.317,78393,236806,199894,763,0.233611525,2243,0.686750525
2023-10-26 13:45:30.317,78394,236819,199889,1165,0.356693875,2050,0.62765875
2023-10-26 13:45:30.317,78395,236816,199914,1676,0.5131493,1927,0.589999225
2023-10-26 13:45:30.317,78396,236819,199920,1214,0.37169645,1940,0.5939795
2023-10-26 13:45:30.317,78397,236828,199908,632,0.1935026,1933,0.591836275
2023-10-26 13:45:30.347,78398,236838,199908,984,0.3012762,1863,0.570404025
2023-10-26 13:45:30.347,78399,236879,199929,1534,0.46967245,1874,0.57377195
2023-10-26 13:45:30.347,78400,236873,199908,1092,0.3343431,1943,0.594898025
2023-10-26 13:45:30.347,78401,236910,199924,524,0.1604357,1907,0.583875725
2023-10-26 13:45:30.347,78402,236887,199913,857,0.262391975,1874,0.57377195
2023-10-26 13:45:30.347,78403,236875,199927,1369,0.419153575,1839,0.563055825
2023-10-26 13:45:30.347,78404,236918,199918,955,0.292397125,1818,0.55662615
2023-10-26 13:45:30.347,78405,236913,199924,340,0.1040995,1812,0.5547891
2023-10-26 13:45:30.347,78406,236896,199915,644,0.1971767,1801,0.551421175
2023-10-26 13:45:30.347,78407,236905,199929,1082,0.33128135,1775,0.543460625
2023-10-26 13:45:30.347,78408,236921,199937,214,0.06552145,1747,0.534887725
2023-10-26 13:45:30.347,78409,236932,199935,-813,-0.248920275,1723,0.527539525
2023-10-26 13:45:30.347,78410,236904,199925,-724,-0.2216707,1683,0.515292525
2023-10-26 13:45:30.347,78411,236922,199932,-333,-0.101956275,1511,0.462630425
2023-10-26 13:45:30.347,78412,236940,199943,-746,-0.22840655,1467,0.449158725
2023-10-26 13:45:30.347,78413,236970,199948,-1320,-0.404151,1417,0.433849975
2023-10-26 13:45:30.347,78414,236956,199940,-1021,-0.312604675,1312,0.4017016
2023-10-26 13:45:30.347,78415,236940,199935,-506,-0.15492455,1266,0.38761755
2023-10-26 13:45:30.347,78416,236952,199963,-844,-0.2584117,1307,0.400170725
2023-10-26 13:45:30.347,78417,236938,199936,-1384,-0.4237462,1263,0.386699025
2023-10-26 13:45:30.347,78418,236946,199948,-1080,-0.330669,1217,0.372614975
2023-10-26 13:45:30.347,78419,236941,199945,-545,-0.166865375,1166,0.35700005
2023-10-26 13:45:30.347,78420,236959,199939,-880,-0.269434,1123,0.343834525
2023-10-26 13:45:30.347,78421,236947,199936,-1414,-0.43293145,1093,0.334649275
2023-10-26 13:45:30.347,78422,236953,199957,-1100,-0.3367925,1060,0.3245455
2023-10-26 13:45:30.377,78423,236972,199954,-537,-0.164415975,1016,0.3110738
2023-10-26 13:45:30.377,78424,236941,199941,-879,-0.269127825,975,0.298520625
2023-10-26 13:45:30.377,78425,236951,199940,-1467,-0.449158725,934,0.28596745
2023-10-26 13:45:30.377,78426,236948,199939,-1060,-0.3245455,660,0.2020755
2023-10-26 13:45:30.377,78427,236962,199939,-510,-0.15614925,194,0.05939795
2023-10-26 13:45:30.377,78428,236934,199932,-856,-0.2620858,-88,-0.0269434
2023-10-26 13:45:30.377,78429,236973,199940,-1401,-0.428951175,-349,-0.106855075
2023-10-26 13:45:30.377,78430,236985,199949,-1101,-0.337098675,-670,-0.20513725
2023-10-26 13:45:30.377,78431,236991,199939,-549,-0.168090075,-890,-0.27249575
2023-10-26 13:45:30.377,78432,236995,199957,-836,-0.2559623,-925,-0.283211875
2023-10-26 13:45:30.377,78433,236989,199949,-1370,-0.41945975,-930,-0.28474275
2023-10-26 13:45:30.377,78434,237000,199949,-1071,-0.327913425,-988,-0.3025009
2023-10-26 13:45:30.377,78435,237039,199974,-508,-0.1555369,-972,-0.2976021
2023-10-26 13:45:30.377,78436,237014,199961,-722,-0.22105835,-856,-0.2620858
2023-10-26 13:45:30.377,78437,237014,199966,-1138,-0.34842715,-821,-0.251369675
2023-10-26 13:45:30.377,78438,237011,199968,-769,-0.235448575,-885,-0.270964875
2023-10-26 13:45:30.377,78439,237051,199966,-168,-0.0514374,-918,-0.28106865
2023-10-26 13:45:30.377,78440,237050,199969,-434,-0.13287995,-964,-0.2951527
2023-10-26 13:45:30.377,78441,237070,199974,-953,-0.291784775,-981,-0.300357675
2023-10-26 13:45:30.407,78442,237066,199974,-662,-0.20268785,-988,-0.3025009
2023-10-26 13:45:30.407,78443,237046,199982,-63,-0.019289025,-993,-0.304031775
2023-10-26 13:45:30.407,78444,237068,199994,-481,-0.147270175,-987,-0.302194725
2023-10-26 13:45:30.407,78445,237096,199989,-1101,-0.337098675,-971,-0.297295925
2023-10-26 13:45:30.407,78446,237094,199986,-854,-0.26147345,-965,-0.295458875
2023-10-26 13:45:30.407,78447,237079,199979,-334,-0.10226245,-976,-0.2988268
2023-10-26 13:45:30.407,78448,237072,199992,-652,-0.1996261,-987,-0.302194725
2023-10-26 13:45:30.407,78449,237102,199992,-1191,-0.364654425,-984,-0.3012762
2023-10-26 13:45:30.407,78450,237098,200018,-941,-0.288110675,-981,-0.300357675
2023-10-26 13:45:30.407,78451,237128,199994,-460,-0.1408405,-983,-0.300970025
2023-10-26 13:45:30.407,78452,237107,199998,-778,-0.23820415,-978,-0.29943915
2023-10-26 13:45:30.407,78453,237134,200006,-1340,-0.4102745,-959,-0.293621825
2023-10-26 13:45:30.407,78454,237134,200012,-1098,-0.33618015,-942,-0.28841685
2023-10-26 13:45:30.407,78455,237162,200015,-576,-0.1763568,-934,-0.28596745
2023-10-26 13:45:30.407,78456,237151,200012,-836,-0.2559623,-919,-0.281374825
2023-10-26 13:45:30.407,78457,237137,200023,-1346,-0.41211155,-887,-0.271577225
2023-10-26 13:45:30.407,78458,237158,200010,-1111,-0.340160425,-850,-0.26024875
2023-10-26 13:45:30.407,78459,237155,200031,-606,-0.18554205,-818,-0.25045115
2023-10-26 13:45:30.447,78460,237173,200022,-781,-0.239122675,-778,-0.23820415
2023-10-26 13:45:30.447,78461,237189,200031,-1279,-0.391597825,-728,-0.2228954
2023-10-26 13:45:30.447,78462,237186,200029,-1028,-0.3147479,-686,-0.21003605
2023-10-26 13:45:30.447,78463,237193,200034,-466,-0.14267755,-663,-0.202994025
2023-10-26 13:45:30.447,78464,237196,200038,-693,-0.212179275,-645,-0.197482875
2023-10-26 13:45:30.447,78465,237209,200038,-1242,-0.38026935,-626,-0.19166555
2023-10-26 13:45:30.447,78466,237216,200058,-1004,-0.3073997,-620,-0.1898285
2023-10-26 13:45:30.447,78467,237251,200038,-485,-0.148494875,-634,-0.19411495
2023-10-26 13:45:30.447,78468,237235,200038,-767,-0.234836225,-653,-0.199932275
2023-10-26 13:45:30.447,78469,237242,200062,-1314,-0.40231395,-669,-0.204831075
2023-10-26 13:45:30.447,78470,237236,200042,-1015,-0.310767625,-695,-0.212791625
2023-10-26 13:45:30.447,78471,237228,200080,-393,-0.120326775,-738,-0.22595715
2023-10-26 13:45:30.447,78472,237224,200052,-641,-0.196258175,-780,-0.2388165
2023-10-26 13:45:30.447,78473,237254,200072,-1217,-0.372614975,-810,-0.24800175
2023-10-26 13:45:30.477,78474,237278,200054,-997,-0.305256475,-839,-0.256880825
2023-10-26 13:45:30.507,78475,237275,200073,-452,-0.1383911,-875,-0.267903125
2023-10-26 13:45:30.507,78476,237273,200069,-696,-0.2130978,-904,-0.2767822
2023-10-26 13:45:30.507,78477,237265,200068,-1176,-0.3600618,-917,-0.280762475
2023-10-26 13:45:30.507,78478,237283,200086,-954,-0.29209095,-927,-0.283824225
2023-10-26 13:45:30.507,78479,237300,200065,-392,-0.1200206,-942,-0.28841685
2023-10-26 13:45:30.507,78480,237294,200077,-616,-0.1886038,-948,-0.2902539
2023-10-26 13:45:30.507,78481,237289,200093,-1171,-0.358530925,-939,-0.287498325
2023-10-26 13:45:30.507,78482,237302,200067,-945,-0.289335375,-931,-0.285048925
2023-10-26 13:45:30.507,78483,237298,200090,-310,-0.09491425,-931,-0.285048925
2023-10-26 13:45:30.507,78484,237330,200082,-424,-0.1298182,-927,-0.283824225
2023-10-26 13:45:30.507,78485,237301,200102,-988,-0.3025009,-912,-0.2792316
2023-10-26 13:45:30.507,78486,237314,200080,-789,-0.241572075,-899,-0.275251325
2023-10-26 13:45:30.537,78487,237326,200077,-206,-0.06307205,-895,-0.274026625
2023-10-26 13:45:30.537,78488,237324,200085,-396,-0.1212453,-887,-0.271577225
2023-10-26 13:45:30.537,78489,237346,200091,-952,-0.2914786,-870,-0.26637225
2023-10-26 13:45:30.537,78490,237334,200092,-737,-0.225650975,-859,-0.263004325
2023-10-26 13:45:30.537,78491,237339,200074,-160,-0.048988,-862,-0.26392285
2023-10-26 13:45:30.627,78492,237343,200077,-417,-0.127674975,-864,-0.2645352
2023-10-26 13:45:30.627,78493,237348,200102,-1078,-0.33005665,-855,-0.261779625
2023-10-26 13:45:30.627,78494,237336,200095,-834,-0.25534995,-846,-0.25902405
2023-10-26 13:45:30.627,78495,237339,200082,-261,-0.079911675,-847,-0.259330225
2023-10-26 13:45:30.627,78496,237347,200110,-467,-0.142983725,-844,-0.2584117
2023-10-26 13:45:30.627,78497,237348,200089,-1061,-0.324851675,-830,-0.25412525
2023-10-26 13:45:30.627,78498,237337,200090,-889,-0.272189575,-819,-0.250757325
2023-10-26 13:45:30.627,78499,237346,200095,-314,-0.09613895,-819,-0.250757325
2023-10-26 13:45:30.657,78500,237328,200082,-512,-0.1567616,-816,-0.2498388
2023-10-26 13:45:30.657,78501,237337,200104,-1085,-0.332199875,-798,-0.24432765
2023-10-26 13:45:30.657,78502,237330,200089,-896,-0.2743328,-777,-0.237897975
2023-10-26 13:45:30.657,78503,237350,200098,-316,-0.0967513,-765,-0.234223875
2023-10-26 13:45:30.657,78504,237334,200114,-509,-0.155843075,-750,-0.22963125
2023-10-26 13:45:30.657,78505,237323,200094,-1078,-0.33005665,-724,-0.2216707
2023-10-26 13:45:30.657,78506,237324,200107,-893,-0.273414275,-700,-0.2143225
2023-10-26 13:45:30.697,78507,237323,200093,-307,-0.093995725,-685,-0.209729875
2023-10-26 13:45:30.697,78508,237307,200095,-457,-0.139921975,-667,-0.204218725
2023-10-26 13:45:30.697,78509,237291,200108,-1030,-0.31536025,-639,-0.195645825
2023-10-26 13:45:30.697,78510,237312,200083,-872,-0.2669846,-616,-0.1886038
2023-10-26 13:45:30.697,78511,237305,200094,-244,-0.0747067,-610,-0.18676675
2023-10-26 13:45:30.727,78512,237289,200084,-455,-0.139309625,-608,-0.1861544
2023-10-26 13:45:30.727,78513,237286,200106,-1031,-0.315666425,-600,-0.183705
2023-10-26 13:45:30.727,78514,237268,200079,-813,-0.248920275,-598,-0.18309265
2023-10-26 13:45:30.727,78515,237266,200092,-248,-0.0759314,-610,-0.18676675
2023-10-26 13:45:30.727,78516,237259,200087,-413,-0.126450275,-623,-0.190747025
2023-10-26 13:45:30.757,78517,237272,200082,-983,-0.300970025,-628,-0.1922779
2023-10-26 13:45:30.757,78518,237267,200070,-818,-0.25045115,-636,-0.1947273
2023-10-26 13:45:30.757,78519,237248,200086,-237,-0.072563475,-656,-0.2008508
2023-10-26 13:45:30.787,78520,237250,200073,-376,-0.1151218,-673,-0.206055775
2023-10-26 13:45:30.787,78521,237235,200062,-985,-0.301582375,-676,-0.2069743
2023-10-26 13:45:30.787,78522,237239,200065,-802,-0.24555235,-679,-0.207892825
2023-10-26 13:45:30.817,78523,237231,200061,-190,-0.05817325,-691,-0.211566925
2023-10-26 13:45:30.817,78524,237258,200069,-342,-0.10471185,-700,-0.2143225
2023-10-26 13:45:30.817,78525,237271,200074,-923,-0.282599525,-697,-0.213403975
2023-10-26 13:45:30.817,78526,237258,200080,-769,-0.235448575,-692,-0.2118731
2023-10-26 13:45:30.817,78527,237319,200093,-217,-0.066439975,-696,-0.2130978
2023-10-26 13:45:30.817,78528,237303,200098,-291,-0.089096925,-697,-0.213403975
2023-10-26 13:45:30.847,78529,237321,200085,-820,-0.2510635,-686,-0.21003605
2023-10-26 13:45:30.847,78530,237320,200101,-630,-0.19289025,-676,-0.2069743
2023-10-26 13:45:30.847,78531,237335,200107,-37,-0.011328475,-676,-0.2069743
2023-10-26 13:45:30.847,78532,237320,200112,-208,-0.0636844,-675,-0.206668125
2023-10-26 13:45:30.877,78533,237355,200108,-807,-0.247083225,-661,-0.202381675
2023-10-26 13:45:30.877,78534,237351,200101,-638,-0.19533965,-649,-0.198707575
2023-10-26 13:45:30.877,78535,237352,200118,-40,-0.012247,-648,-0.1984014
2023-10-26 13:45:30.877,78536,237331,200107,-222,-0.06797085,-647,-0.198095225
2023-10-26 13:45:30.907,78537,237359,200096,-823,-0.251982025,-634,-0.19411495
2023-10-26 13:45:30.907,78538,237357,200102,-655,-0.200544625,-622,-0.19044085
2023-10-26 13:45:30.907,78539,237378,200113,-25,-0.007654375,-623,-0.190747025
2023-10-26 13:45:30.907,78540,237354,200117,-213,-0.065215275,-623,-0.190747025
2023-10-26 13:45:30.907,78541,237367,200110,-855,-0.261779625,-610,-0.18676675
2023-10-26 13:45:30.907,78542,237349,200127,-712,-0.2179966,-599,-0.183398825
2023-10-26 13:45:30.947,78543,237372,200105,-120,-0.036741,-600,-0.183705
2023-10-26 13:45:30.947,78544,237360,200097,-238,-0.07286965,-599,-0.183398825
2023-10-26 13:45:30.947,78545,237368,200116,-761,-0.232999175,-586,-0.17941855
2023-10-26 13:45:30.947,78546,237347,200096,-635,-0.194421125,-571,-0.174825925
2023-10-26 13:45:30.947,78547,237363,200102,-68,-0.0208199,-566,-0.17329505
2023-10-26 13:45:30.947,78548,237356,200095,-205,-0.062765875,-557,-0.170539475
2023-10-26 13:45:30.947,78549,237377,200111,-792,-0.2424906,-537,-0.164415975
2023-10-26 13:45:30.947,78550,237364,200107,-671,-0.205443425,-517,-0.158292475
2023-10-26 13:45:30.947,78551,237378,200106,-58,-0.01775815,-508,-0.1555369
2023-10-26 13:45:30.977,78552,237367,200099,-160,-0.048988,-498,-0.15247515
2023-10-26 13:45:30.977,78553,237375,200099,-744,-0.2277942,-477,-0.146045475
2023-10-26 13:45:30.977,78554,237352,200098,-453,-0.138697275,-458,-0.14022815
2023-10-26 13:45:30.977,78555,237382,200118,196,0.0600103,-452,-0.1383911
2023-10-26 13:45:30.977,78556,237389,200104,65,0.019901375,-447,-0.136860225
2023-10-26 13:45:30.977,78557,237393,200111,-535,-0.163803625,-434,-0.13287995
2023-10-26 13:45:30.977,78558,237403,200098,-397,-0.121551475,-426,-0.13043055
2023-10-26 13:45:30.977,78559,237409,200111,198,0.06062265,-432,-0.1322676
2023-10-26 13:45:31.007,78560,237399,200127,31,0.009491425,-440,-0.134717
2023-10-26 13:45:31.007,78561,237407,200105,-620,-0.1898285,-436,-0.1334923
2023-10-26 13:45:31.007,78562,237387,200108,-450,-0.13777875,-433,-0.132573775
2023-10-26 13:45:31.007,78563,237394,200128,163,0.049906525,-442,-0.13532935
2023-10-26 13:45:31.007,78564,237397,200115,41,0.012553175,-451,-0.138084925
2023-10-26 13:45:31.007,78565,237414,200123,-529,-0.161966575,-447,-0.136860225
2023-10-26 13:45:31.037,78566,237409,200104,-369,-0.112978575,-442,-0.13532935
2023-10-26 13:45:31.037,78567,237420,200105,260,0.0796055,-447,-0.136860225
2023-10-26 13:45:31.037,78568,237395,200105,188,0.0575609,-451,-0.138084925
2023-10-26 13:45:31.037,78569,237396,200103,-440,-0.134717,-440,-0.134717
2023-10-26 13:45:31.067,78570,237419,200110,-372,-0.1138971,-429,-0.131349075
2023-10-26 13:45:31.067,78571,237403,200109,239,0.073175825,-425,-0.130124375
2023-10-26 13:45:31.067,78572,237415,200120,105,0.032148375,-417,-0.127674975
2023-10-26 13:45:31.097,78573,237409,200116,-541,-0.165640675,-394,-0.12063295
2023-10-26 13:45:31.097,78574,237414,200133,-466,-0.14267755,-368,-0.1126724
2023-10-26 13:45:31.127,78575,237440,200131,67,0.020513725,-350,-0.10716125
2023-10-26 13:45:31.127,78576,237415,200120,-91,-0.027861925,-329,-0.100731575
2023-10-26 13:45:31.127,78577,237419,200115,-737,-0.225650975,-296,-0.0906278
2023-10-26 13:45:31.127,78578,237441,200120,-643,-0.196870525,-267,-0.081748725
2023-10-26 13:45:31.127,78579,237422,200125,14,0.00428645,-252,-0.0771561
2023-10-26 13:45:31.127,78580,237432,200121,-84,-0.0257187,-240,-0.073482
2023-10-26 13:45:31.127,78581,237434,200132,-701,-0.214628675,-218,-0.06674615
2023-10-26 13:45:31.127,78582,237443,200115,-611,-0.187072925,-200,-0.061235
2023-10-26 13:45:31.127,78583,237449,200126,-2,-0.00061235,-196,-0.0600103
2023-10-26 13:45:31.157,78584,237453,200130,-38,-0.01163465,-192,-0.0587856
2023-10-26 13:45:31.157,78585,237464,200142,-608,-0.1861544,-177,-0.054192975
2023-10-26 13:45:31.157,78586,237458,200141,-585,-0.179112375,-163,-0.049906525
2023-10-26 13:45:31.157,78587,237480,200137,6,0.00183705,-163,-0.049906525
2023-10-26 13:45:31.157,78588,237488,200125,-68,-0.0208199,-164,-0.0502127
2023-10-26 13:45:31.157,78589,237481,200153,-700,-0.2143225,-152,-0.0465386
2023-10-26 13:45:31.157,78590,237479,200136,-646,-0.19778905,-141,-0.043170675
2023-10-26 13:45:31.157,78591,237456,200139,-76,-0.0232693,-143,-0.043783025
2023-10-26 13:45:31.197,78592,237492,200143,-143,-0.043783025,-147,-0.045007725
2023-10-26 13:45:31.197,78593,237484,200143,-789,-0.241572075,-145,-0.044395375
2023-10-26 13:45:31.197,78594,237508,200142,-788,-0.2412659,-149,-0.045620075
2023-10-26 13:45:31.197,78595,237527,200164,-183,-0.056030025,-171,-0.052355925
2023-10-26 13:45:31.197,78596,237500,200152,-147,-0.045007725,-199,-0.060928825
2023-10-26 13:45:31.197,78597,237513,200155,-735,-0.225038625,-218,-0.06674615
2023-10-26 13:45:31.227,78598,237508,200144,-669,-0.204831075,-238,-0.07286965
2023-10-26 13:45:31.227,78599,237524,200152,-52,-0.0159211,-269,-0.082361075
2023-10-26 13:45:31.227,78600,237520,200151,-113,-0.034597775,-299,-0.091546325
2023-10-26 13:45:31.227,78601,237536,200154,-686,-0.21003605,-313,-0.095832775
2023-10-26 13:45:31.227,78602,237508,200137,-602,-0.18431735,-321,-0.098282175
2023-10-26 13:45:31.227,78603,237528,200149,-77,-0.023575475,-335,-0.102568625
2023-10-26 13:45:31.227,78604,237527,200145,-174,-0.05327445,-345,-0.105630375
2023-10-26 13:45:31.227,78605,237543,200143,-805,-0.246470875,-340,-0.1040995
2023-10-26 13:45:31.227,78606,237508,200147,-773,-0.236673275,-333,-0.101956275
2023-10-26 13:45:31.257,78607,237514,200155,-152,-0.0465386,-338,-0.10348715
2023-10-26 13:45:31.257,78608,237527,200166,-170,-0.05204975,-345,-0.105630375
2023-10-26 13:45:31.257,78609,237540,200156,-758,-0.23208065,-342,-0.10471185
2023-10-26 13:45:31.257,78610,237559,200156,-720,-0.220446,-339,-0.103793325
2023-10-26 13:45:31.257,78611,237522,200163,-145,-0.044395375,-352,-0.1077736
2023-10-26 13:45:31.257,78612,237537,200139,-203,-0.062153525,-370,-0.11328475
2023-10-26 13:45:31.257,78613,237539,200157,-716,-0.2192213,-378,-0.11573415
2023-10-26 13:45:31.257,78614,237539,200159,-653,-0.199932275,-386,-0.11818355
2023-10-26 13:45:31.257,78615,237568,200161,-51,-0.015614925,-405,-0.124000875
2023-10-26 13:45:31.257,78616,237558,200157,-101,-0.030923675,-421,-0.128899675
2023-10-26 13:45:31.287,78617,237544,200160,-758,-0.23208065,-424,-0.1298182
2023-10-26 13:45:31.287,78618,237545,200149,-781,-0.239122675,-422,-0.12920585
2023-10-26 13:45:31.287,78619,237556,200169,-176,-0.0538868,-426,-0.13043055
2023-10-26 13:45:31.287,78620,237539,200156,-177,-0.054192975,-429,-0.131349075
2023-10-26 13:45:31.287,78621,237563,200153,-757,-0.231774475,-420,-0.1285935
2023-10-26 13:45:31.287,78622,237558,200152,-726,-0.22228305,-410,-0.12553175
2023-10-26 13:45:31.287,78623,237559,200177,-116,-0.0355163,-412,-0.1261441
2023-10-26 13:45:31.287,78624,237569,200162,-96,-0.0293928,-418,-0.12798115
2023-10-26 13:45:31.317,78625,237562,200161,-699,-0.214016325,-414,-0.12675645
2023-10-26 13:45:31.317,78626,237561,200159,-690,-0.21126075,-411,-0.125837925
2023-10-26 13:45:31.317,78627,237583,200170,-61,-0.018676675,-420,-0.1285935
2023-10-26 13:45:31.317,78628,237557,200156,-59,-0.018064325,-431,-0.131961425
2023-10-26 13:45:31.317,78629,237573,200160,-702,-0.21493485,-433,-0.132573775
2023-10-26 13:45:31.317,78630,237575,200163,-621,-0.190134675,-433,-0.132573775
2023-10-26 13:45:31.317,78631,237587,200158,-21,-0.006429675,-444,-0.1359417
2023-10-26 13:45:31.347,78632,237567,200151,-25,-0.007654375,-452,-0.1383911
2023-10-26 13:45:31.347,78633,237571,200149,-642,-0.19656435,-446,-0.13655405
2023-10-26 13:45:31.347,78634,237594,200165,-604,-0.1849297,-437,-0.133798475
2023-10-26 13:45:31.347,78635,237600,200157,-5,-0.001530875,-439,-0.134410825
2023-10-26 13:45:31.347,78636,237583,200169,-9,-0.002755575,-443,-0.135635525
2023-10-26 13:45:31.377,78637,237582,200164,-652,-0.1996261,-435,-0.133186125
2023-10-26 13:45:31.377,78638,237576,200159,-658,-0.20146315,-427,-0.130736725
2023-10-26 13:45:31.377,78639,237585,200179,-61,-0.018676675,-430,-0.13165525
2023-10-26 13:45:31.377,78640,237623,200163,-23,-0.007042025,-436,-0.1334923
2023-10-26 13:45:31.377,78641,237599,200170,-623,-0.190747025,-432,-0.1322676
2023-10-26 13:45:31.377,78642,237586,200164,-635,-0.194421125,-427,-0.130736725
2023-10-26 13:45:31.377,78643,237589,200158,-23,-0.007042025,-434,-0.13287995
2023-10-26 13:45:31.377,78644,237564,200145,14,0.00428645,-440,-0.134717
2023-10-26 13:45:31.407,78645,237543,200160,-631,-0.193196425,-431,-0.131961425
2023-10-26 13:45:31.407,78646,237568,200151,-697,-0.213403975,-418,-0.12798115
2023-10-26 13:45:31.407,78647,237580,200144,7,0.002143225,-414,-0.12675645
2023-10-26 13:45:31.407,78648,237562,200139,60,0.0183705,-411,-0.125837925
2023-10-26 13:45:31.407,78649,237543,200142,-569,-0.174213575,-397,-0.121551475
2023-10-26 13:45:31.407,78650,237547,200128,-614,-0.18799145,-381,-0.116652675
2023-10-26 13:45:31.407,78651,237556,200152,-20,-0.0061235,-375,-0.114815625
2023-10-26 13:45:31.407,78652,237555,200125,25,0.007654375,-370,-0.11328475
2023-10-26 13:45:31.447,78653,237552,200132,-593,-0.181561775,-353,-0.108079775
2023-10-26 13:45:31.447,78654,237521,200107,-593,-0.181561775,-337,-0.103180975
2023-10-26 13:45:31.447,78655,237541,200125,38,0.01163465,-336,-0.1028748
2023-10-26 13:45:31.447,78656,237530,200132,85,0.026024875,-340,-0.1040995
2023-10-26 13:45:31.447,78657,237504,200131,-526,-0.16104805,-334,-0.10226245
2023-10-26 13:45:31.447,78658,237542,200123,-580,-0.1775815,-327,-0.100119225
2023-10-26 13:45:31.447,78659,237534,200130,18,0.00551115,-331,-0.101343925
2023-10-26 13:45:31.447,78660,237543,200134,76,0.0232693,-337,-0.103180975
2023-10-26 13:45:31.447,78661,237544,200125,-535,-0.163803625,-330,-0.10103775
2023-10-26 13:45:31.447,78662,237520,200130,-621,-0.190134675,-323,-0.098894525
2023-10-26 13:45:31.477,78663,237528,200133,-52,-0.0159211,-328,-0.1004254
2023-10-26 13:45:31.477,78664,237508,200134,16,0.0048988,-336,-0.1028748
2023-10-26 13:45:31.477,78665,237497,200123,-618,-0.18921615,-331,-0.101343925
2023-10-26 13:45:31.477,78666,237478,200114,-644,-0.1971767,-321,-0.098282175
2023-10-26 13:45:31.477,78667,237472,200124,-30,-0.00918525,-322,-0.09858835
2023-10-26 13:45:31.477,78668,237487,200126,50,0.01530875,-325,-0.099506875
2023-10-26 13:45:31.507,78669,237466,200117,-563,-0.172376525,-317,-0.097057475
2023-10-26 13:45:31.507,78670,237441,200102,-643,-0.196870525,-305,-0.093383375
2023-10-26 13:45:31.507,78671,237445,200098,-36,-0.0110223,-305,-0.093383375
2023-10-26 13:45:31.507,78672,237438,200089,62,0.01898285,-307,-0.093995725
2023-10-26 13:45:31.507,78673,237442,200116,-549,-0.168090075,-297,-0.090933975
2023-10-26 13:45:31.537,78674,237451,200097,-581,-0.177887675,-283,-0.086647525
2023-10-26 13:45:31.537,78675,237444,200115,21,0.006429675,-282,-0.08634135
2023-10-26 13:45:31.537,78676,237451,200104,73,0.022350775,-285,-0.087259875
2023-10-26 13:45:31.537,78677,237470,200101,-571,-0.174825925,-278,-0.08511665
2023-10-26 13:45:31.567,78678,237432,200110,-656,-0.2008508,-266,-0.08144255
2023-10-26 13:45:31.567,78679,237455,200112,-89,-0.027249575,-266,-0.08144255
2023-10-26 13:45:31.567,78680,237467,200098,-49,-0.015002575,-271,-0.082973425
2023-10-26 13:45:31.567,78681,237448,200115,-595,-0.182174125,-267,-0.081748725
2023-10-26 13:45:31.567,78682,237465,200112,-684,-0.2094237,-262,-0.08021785
2023-10-26 13:45:31.597,78683,237478,200124,-123,-0.037659525,-271,-0.082973425
2023-10-26 13:45:31.597,78684,237440,200106,-62,-0.01898285,-284,-0.0869537
2023-10-26 13:45:31.597,78685,237459,200112,-666,-0.20391255,-286,-0.08756605
2023-10-26 13:45:31.597,78686,237455,200094,-761,-0.232999175,-283,-0.086647525
2023-10-26 13:45:31.627,78687,237497,200121,-167,-0.051131225,-291,-0.089096925
2023-10-26 13:45:31.627,78688,237486,200106,-52,-0.0159211,-303,-0.092771025
2023-10-26 13:45:31.627,78689,237491,200130,-663,-0.202994025,-302,-0.09246485
2023-10-26 13:45:31.627,78690,237494,200105,-772,-0.2363671,-297,-0.090933975
2023-10-26 13:45:31.627,78691,237505,200133,-134,-0.04102745,-301,-0.092158675
2023-10-26 13:45:31.627,78692,237510,200127,-21,-0.006429675,-306,-0.09368955
2023-10-26 13:45:31.627,78693,237528,200135,-647,-0.198095225,-298,-0.09124015
2023-10-26 13:45:31.657,78694,237486,200126,-661,-0.202381675,-286,-0.08756605
2023-10-26 13:45:31.657,78695,237535,200137,-9,-0.002755575,-286,-0.08756605
2023-10-26 13:45:31.657,78696,237530,200126,72,0.0220446,-292,-0.0894031
2023-10-26 13:45:31.657,78697,237557,200142,-552,-0.1690086,-289,-0.088484575
2023-10-26 13:45:31.657,78698,237522,200125,-537,-0.164415975,-285,-0.087259875
2023-10-26 13:45:31.657,78699,237533,200133,54,0.01653345,-293,-0.089709275
2023-10-26 13:45:31.697,78700,237530,200121,144,0.0440892,-307,-0.093995725
2023-10-26 13:45:31.697,78701,237531,200131,-504,-0.1543122,-313,-0.095832775
2023-10-26 13:45:31.697,78702,237549,200130,-586,-0.17941855,-318,-0.09736365
2023-10-26 13:45:31.697,78703,237555,200132,34,0.01040995,-334,-0.10226245
2023-10-26 13:45:31.697,78704,237543,200134,99,0.030311325,-354,-0.10838595
2023-10-26 13:45:31.697,78705,237553,200127,-587,-0.179724725,-362,-0.11083535
2023-10-26 13:45:31.697,78706,237549,200124,-721,-0.220752175,-365,-0.111753875
2023-10-26 13:45:31.697,78707,237550,200123,-120,-0.036741,-379,-0.116040325
2023-10-26 13:45:31.697,78708,237535,200115,-2,-0.00061235,-394,-0.12063295
2023-10-26 13:45:31.727,78709,237537,200122,-590,-0.18064325,-398,-0.12185765
2023-10-26 13:45:31.727,78710,237547,200116,-708,-0.2167719,-395,-0.120939125
2023-10-26 13:45:31.727,78711,237556,200130,-130,-0.03980275,-400,-0.12247
2023-10-26 13:45:31.727,78712,237544,200123,-12,-0.0036741,-402,-0.12308235
2023-10-26 13:45:31.727,78713,237531,200126,-687,-0.210342225,-390,-0.11940825
2023-10-26 13:45:31.727,78714,237560,200124,-860,-0.2633105,-372,-0.1138971
2023-10-26 13:45:31.727,78715,237552,200119,-167,-0.051131225,-363,-0.111141525
2023-10-26 13:45:31.757,78716,237570,200121,32,0.0097976,-355,-0.108692125
2023-10-26 13:45:31.757,78717,237566,200136,-584,-0.1788062,-335,-0.102568625
2023-10-26 13:45:31.757,78718,237564,200121,-737,-0.225650975,-310,-0.09491425
2023-10-26 13:45:31.757,78719,237578,200140,-171,-0.052355925,-296,-0.0906278
2023-10-26 13:45:31.757,78720,237580,200140,-42,-0.01285935,-286,-0.08756605
2023-10-26 13:45:31.787,78721,237592,200144,-667,-0.204218725,-267,-0.081748725
2023-10-26 13:45:31.787,78722,237594,200133,-839,-0.256880825,-249,-0.076237575
2023-10-26 13:45:31.787,78723,237610,200148,-221,-0.067664675,-248,-0.0759314
2023-10-26 13:45:31.817,78724,237584,200135,-34,-0.01040995,-257,-0.078686975
2023-10-26 13:45:31.817,78725,237608,200136,-639,-0.195645825,-258,-0.07899315
2023-10-26 13:45:31.817,78726,237600,200125,-731,-0.223813925,-259,-0.079299325
2023-10-26 13:45:31.817,78727,237587,200145,-98,-0.03000515,-274,-0.08389195
2023-10-26 13:45:31.817,78728,237615,200144,26,0.00796055,-296,-0.0906278
2023-10-26 13:45:31.817,78729,237594,200148,-618,-0.18921615,-307,-0.093995725
2023-10-26 13:45:31.847,78730,237613,200126,-795,-0.243409125,-316,-0.0967513
2023-10-26 13:45:31.847,78731,237620,200154,-238,-0.07286965,-337,-0.103180975
2023-10-26 13:45:31.847,78732,237619,200131,22,0.00673585,-361,-0.110529175
2023-10-26 13:45:31.847,78733,237613,200157,-574,-0.17574445,-371,-0.113590925
2023-10-26 13:45:31.847,78734,237627,200146,-755,-0.231162125,-372,-0.1138971
2023-10-26 13:45:31.847,78735,237610,200141,-168,-0.0514374,-381,-0.116652675
2023-10-26 13:45:31.877,78736,237623,200137,3,0.000918525,-394,-0.12063295
2023-10-26 13:45:31.877,78737,237600,200131,-609,-0.186460575,-395,-0.120939125
2023-10-26 13:45:31.877,78738,237604,200128,-808,-0.2473894,-391,-0.119714425
2023-10-26 13:45:31.877,78739,237619,200152,-227,-0.069501725,-397,-0.121551475
2023-10-26 13:45:31.877,78740,237617,200141,-25,-0.007654375,-408,-0.1249194
2023-10-26 13:45:31.907,78741,237614,200144,-616,-0.1886038,-407,-0.124613225
2023-10-26 13:45:31.907,78742,237631,200144,-783,-0.239735025,-400,-0.12247
2023-10-26 13:45:31.907,78743,237641,200142,-171,-0.052355925,-404,-0.1236947
2023-10-26 13:45:31.947,78744,237627,200149,8,0.0024494,-413,-0.126450275
2023-10-26 13:45:31.947,78745,237639,200153,-614,-0.18799145,-410,-0.12553175
2023-10-26 13:45:31.947,78746,237652,200147,-755,-0.231162125,-401,-0.122776175
2023-10-26 13:45:31.947,78747,237655,200156,-170,-0.05204975,-401,-0.122776175
2023-10-26 13:45:31.947,78748,237678,200167,-18,-0.00551115,-406,-0.12430705
2023-10-26 13:45:31.947,78749,237663,200166,-576,-0.1763568,-400,-0.12247
2023-10-26 13:45:31.947,78750,237670,200151,-782,-0.23942885,-389,-0.119102075
2023-10-26 13:45:31.947,78751,237677,200160,-217,-0.066439975,-390,-0.11940825
2023-10-26 13:45:31.947,78752,237684,200159,-25,-0.007654375,-397,-0.121551475
2023-10-26 13:45:31.977,78753,237680,200167,-603,-0.184623525,-392,-0.1200206
2023-10-26 13:45:31.977,78754,237691,200169,-755,-0.231162125,-381,-0.116652675
2023-10-26 13:45:31.977,78755,237656,200164,-144,-0.0440892,-382,-0.11695885
2023-10-26 13:45:31.977,78756,237685,200141,76,0.0232693,-390,-0.11940825
2023-10-26 13:45:31.977,78757,237680,200158,-494,-0.15125045,-389,-0.119102075
2023-10-26 13:45:31.977,78758,237662,200144,-642,-0.19656435,-384,-0.1175712
2023-10-26 13:45:31.977,78759,237653,200143,204,0.0624597,-391,-0.119714425
2023-10-26 13:45:31.977,78760,237659,200135,656,0.2008508,-403,-0.123388525
2023-10-26 13:45:32.007,78761,237685,200145,104,0.0318422,-404,-0.1236947
2023-10-26 13:45:32.007,78762,237679,200149,-67,-0.020513725,-398,-0.12185765
2023-10-26 13:45:32.007,78763,237665,200163,529,0.161966575,-399,-0.122163825
2023-10-26 13:45:32.007,78764,237703,200149,724,0.2216707,-404,-0.1236947
2023-10-26 13:45:32.007,78765,237694,200165,58,0.01775815,-399,-0.122163825
2023-10-26 13:45:32.007,78766,237692,200149,-81,-0.024800175,-389,-0.119102075
2023-10-26 13:45:32.007,78767,237712,200170,498,0.15247515,-391,-0.119714425
2023-10-26 13:45:32.037,78768,237716,200170,673,0.206055775,-400,-0.12247
2023-10-26 13:45:32.037,78769,237738,200172,9,0.002755575,-398,-0.12185765
2023-10-26 13:45:32.037,78770,237740,200164,-218,-0.06674615,-390,-0.11940825
2023-10-26 13:45:32.037,78771,237733,200182,306,0.09368955,-391,-0.119714425
2023-10-26 13:45:32.037,78772,237737,200179,506,0.15492455,-395,-0.120939125
2023-10-26 13:45:32.037,78773,237725,200182,-90,-0.02755575,-389,-0.119102075
2023-10-26 13:45:32.037,78774,237757,200168,-306,-0.09368955,-376,-0.1151218
2023-10-26 13:45:32.037,78775,237744,200201,267,0.081748725,-372,-0.1138971
2023-10-26 13:45:32.067,78776,237779,200171,468,0.1432899,-365,-0.111753875
2023-10-26 13:45:32.067,78777,237767,200202,-161,-0.049294175,-336,-0.1028748
2023-10-26 13:45:32.067,78778,237768,200185,-365,-0.111753875,-288,-0.0881784
2023-10-26 13:45:32.067,78779,237768,200201,279,0.085422825,-239,-0.073175825
2023-10-26 13:45:32.067,78780,237732,200193,564,0.1726827,-67,-0.020513725
2023-10-26 13:45:32.067,78781,237775,200198,-44,-0.0134717,122,0.03735335
2023-10-26 13:45:32.067,78782,237776,200176,-339,-0.103793325,187,0.057254725
2023-10-26 13:45:32.097,78783,237740,200179,317,0.097057475,172,0.0526621
2023-10-26 13:45:32.097,78784,237744,200177,568,0.1739074,202,0.06184735
2023-10-26 13:45:32.097,78785,237746,200180,-37,-0.011328475,238,0.07286965
2023-10-26 13:45:32.097,78786,237753,200169,-306,-0.09368955,206,0.06307205
2023-10-26 13:45:32.097,78787,237770,200181,223,0.068277025,241,0.073788175
2023-10-26 13:45:32.097,78788,237739,200184,450,0.13777875,255,0.078074625
2023-10-26 13:45:32.127,78789,237739,200183,-143,-0.043783025,264,0.0808302
2023-10-26 13:45:32.127,78790,237751,200166,-394,-0.12063295,270,0.08266725
2023-10-26 13:45:32.127,78791,237747,200178,175,0.053580625,256,0.0783808
2023-10-26 13:45:32.127,78792,237761,200186,428,0.1310429,230,0.07042025
2023-10-26 13:45:32.127,78793,237755,200184,-174,-0.05327445,208,0.0636844
2023-10-26 13:45:32.127,78794,237786,200181,-413,-0.126450275,187,0.057254725
2023-10-26 13:45:32.127,78795,237777,200196,186,0.05694855,154,0.04715095
2023-10-26 13:45:32.127,78796,237763,200181,468,0.1432899,119,0.036434825
2023-10-26 13:45:32.157,78797,237775,200196,-113,-0.034597775,103,0.031536025
2023-10-26 13:45:32.157,78798,237789,200175,-406,-0.12430705,102,0.03122985
2023-10-26 13:45:32.157,78799,237785,200198,98,0.03000515,96,0.0293928
2023-10-26 13:45:32.157,78800,237805,200198,435,0.133186125,86,0.02633105
2023-10-26 13:45:32.157,78801,237796,200188,-156,-0.0477633,88,0.0269434
2023-10-26 13:45:32.157,78802,237794,200189,-457,-0.139921975,97,0.029698975
2023-10-26 13:45:32.197,78803,237781,200191,72,0.0220446,96,0.0293928
2023-10-26 13:45:32.197,78804,237782,200174,355,0.108692125,90,0.02755575
2023-10-26 13:45:32.197,78805,237783,200174,-241,-0.073788175,94,0.02878045
2023-10-26 13:45:32.197,78806,237789,200189,-540,-0.1653345,106,0.03245455
2023-10-26 13:45:32.197,78807,237781,200180,-9,-0.002755575,105,0.032148375
2023-10-26 13:45:32.227,78808,237753,200185,251,0.076849925,93,0.028474275
2023-10-26 13:45:32.227,78809,237789,200181,-356,-0.1089983,87,0.026637225
2023-10-26 13:45:32.227,78810,237738,200174,-649,-0.198707575,85,0.026024875
2023-10-26 13:45:32.227,78811,237757,200178,-124,-0.0379657,71,0.021738425
2023-10-26 13:45:32.227,78812,237745,200166,179,0.054805325,50,0.01530875
2023-10-26 13:45:32.227,78813,237765,200185,-388,-0.1187959,41,0.012553175
2023-10-26 13:45:32.227,78814,237759,200179,-688,-0.2106484,40,0.012247
2023-10-26 13:45:32.257,78815,237778,200177,-158,-0.04837565,30,0.00918525
2023-10-26 13:45:32.257,78816,237809,200187,99,0.030311325,16,0.0048988
2023-10-26 13:45:32.257,78817,237786,200173,-374,-0.11450945,12,0.0036741
2023-10-26 13:45:32.257,78818,237777,200172,-673,-0.206055775,17,0.005204975
2023-10-26 13:45:32.257,78819,237746,200171,-151,-0.046232425,12,0.0036741
2023-10-26 13:45:32.257,78820,237798,200159,151,0.046232425,0,0
